time(100ns),time_stamp(ms),object1.x,object1.y,object1.z,object2.x,object2.y,object2.z,object3.x,object3.y,object3.z,AvoidObject1.x,AvoidObject1.y,AvoidObject1.z,AvoidObject2.x,AvoidObject2.y,AvoidObject2.z,AvoidObject3.x,AvoidObject3.y,AvoidObject3.z,
638520715764310170,248292,16.02249,0.3611731,18.268,16.47737,25.51203,16.56779,1.885945,6.16603,4.174391,-5.519386,-20.57354,20,-22.75025,-16.55,20,1.76717,-24.23748,20,
638520715764360170,248297,16.02249,0.3611731,18.268,16.47737,25.51203,16.56779,1.885945,6.16603,4.174391,-5.506019,-20.52371,19.95156,-22.69515,-16.50992,19.95156,1.76289,-24.17878,19.95156,
638520715764450291,248306,16.02249,0.3611731,18.268,16.47737,25.51203,16.56779,1.885945,6.16603,4.174391,-5.500839,-20.5044,19.93279,-22.6738,-16.49438,19.93279,1.761231,-24.15603,19.93279,
638520715764564881,248317,16.02249,0.3611731,18.268,16.47737,25.51203,16.56779,1.885945,6.16603,4.174391,-5.493754,-20.47799,19.90712,-22.6446,-16.47314,19.90712,1.758963,-24.12492,19.90712,
638520715764674879,248329,16.02249,0.3611731,18.268,16.47737,25.51203,16.56779,1.885945,6.16603,4.174391,-5.484383,-20.44306,19.87316,-22.60597,-16.44504,19.87316,1.755963,-24.08377,19.87316,
638520715764800090,248341,16.02249,0.3611731,18.268,16.47737,25.51203,16.56779,1.885945,6.16603,4.174391,-5.475184,-20.40877,19.83983,-22.56805,-16.41746,19.83983,1.753017,-24.04337,19.83983,
638520715764910097,248352,16.02249,0.3611731,18.268,16.47737,25.51203,16.56779,1.885945,6.16603,4.174391,-5.464877,-20.37035,19.80248,-22.52557,-16.38655,19.80248,1.749717,-23.99811,19.80248,
638520715765000099,248361,16.02249,0.3611731,18.268,16.47737,25.51203,16.56779,1.885945,6.16603,4.174391,-5.455472,-20.33529,19.7684,-22.4868,-16.35835,19.7684,1.746706,-23.95681,19.7684,
638520715765120085,248373,16.02249,0.3611731,18.268,16.47737,25.51203,16.56779,1.885945,6.16603,4.174391,-5.447889,-20.30703,19.74092,-22.45555,-16.33561,19.74092,1.744278,-23.92351,19.74092,
638520715765230086,248384,16.02249,0.3611731,18.268,16.47737,25.51203,16.56779,1.885945,6.16603,4.174391,-5.438663,-20.27264,19.70749,-22.41752,-16.30795,19.70749,1.741324,-23.88299,19.70749,
638520715765340090,248395,16.02249,0.3611731,18.268,16.47737,25.51203,16.56779,1.885945,6.16603,4.174391,-5.429189,-20.23732,19.67316,-22.37846,-16.27954,19.67316,1.73829,-23.84139,19.67316,
638520715765450203,248406,16.02249,0.3611731,18.268,16.47737,25.51203,16.56779,1.885945,6.16603,4.174391,-5.420179,-20.20374,19.64051,-22.34133,-16.25252,19.64051,1.735406,-23.80182,19.64051,
638520715765564626,248417,16.02249,0.3611731,18.268,16.47737,25.51203,16.56779,1.885945,6.16603,4.174391,-5.411094,-20.16987,19.60759,-22.30388,-16.22528,19.60759,1.732497,-23.76193,19.60759,
638520715765674622,248428,16.02249,0.3611731,18.268,16.47737,25.51203,16.56779,1.885945,6.16603,4.174391,-5.401829,-20.13534,19.57401,-22.26569,-16.1975,19.57401,1.729531,-23.72124,19.57401,
638520715765779808,248439,16.02249,0.3611731,18.268,16.47737,25.51203,16.56779,1.885945,6.16603,4.174391,-5.392693,-20.10128,19.54091,-22.22803,-16.1701,19.54091,1.726606,-23.68113,19.54091,
638520715765889927,248450,16.02249,0.3611731,18.268,16.47737,25.51203,16.56779,1.885945,6.16603,4.174391,-5.383591,-20.06736,19.50793,-22.19052,-16.14281,19.50793,1.723691,-23.64116,19.50793,
638520715766009933,248462,16.02249,0.3611731,18.268,16.47737,25.51203,16.56779,1.885945,6.16603,4.174391,-5.374232,-20.03247,19.47402,-22.15194,-16.11475,19.47402,1.720695,-23.60006,19.47402,
638520715766119923,248473,16.02249,0.3611731,18.268,16.47737,25.51203,16.56779,1.885945,6.16603,4.174391,-5.364837,-19.99745,19.43997,-22.11321,-16.08658,19.43997,1.717687,-23.5588,19.43997,
638520715766229923,248484,16.02249,0.3611731,18.268,16.47737,25.51203,16.56779,1.885945,6.16603,4.174391,-5.355838,-19.96391,19.40736,-22.07612,-16.0596,19.40736,1.714806,-23.51928,19.40736,
638520715766339939,248495,16.02249,0.3611731,18.268,16.47737,25.51203,16.56779,1.885945,6.16603,4.174391,-5.346686,-19.92979,19.3742,-22.0384,-16.03215,19.3742,1.711875,-23.4791,19.3742,
638520715766450193,248506,16.02249,0.3611731,18.268,16.47737,25.51203,16.56779,1.885945,6.16603,4.174391,-5.337088,-19.89401,19.33942,-21.99884,-16.00337,19.33942,1.708802,-23.43694,19.33942,
638520715766564725,248517,16.02249,0.3611731,18.268,16.47737,25.51203,16.56779,1.885945,6.16603,4.174391,-5.328146,-19.86068,19.30702,-21.96198,-15.97656,19.30702,1.705939,-23.39768,19.30702,
638520715766674720,248528,16.02249,0.3611731,18.268,16.47737,25.51203,16.56779,1.885945,6.16603,4.174391,-5.318896,-19.8262,19.2735,-21.92385,-15.94882,19.2735,1.702978,-23.35706,19.2735,
638520715766779893,248539,16.02249,0.3611731,18.268,16.47737,25.51203,16.56779,1.885945,6.16603,4.174391,-5.309842,-19.79246,19.24069,-21.88653,-15.92168,19.24069,1.700079,-23.3173,19.24069,
638520715766900014,248551,16.02249,0.3611731,18.268,16.47737,25.51203,16.56779,1.885945,6.16603,4.174391,-5.300536,-19.75777,19.20697,-21.84817,-15.89377,19.20697,1.697099,-23.27643,19.20697,
638520715767000011,248562,16.02249,0.3611731,18.268,16.47737,25.51203,16.56779,1.885945,6.16603,4.174391,-5.29124,-19.72312,19.17329,-21.80986,-15.8659,19.17329,1.694123,-23.23561,19.17329,
638520715767120002,248573,16.02249,0.3611731,18.268,16.47737,25.51203,16.56779,1.885945,6.16603,4.174391,-5.282271,-19.68969,19.14079,-21.77289,-15.839,19.14079,1.691251,-23.19623,19.14079,
638520715767230002,248584,16.02249,0.3611731,18.268,16.47737,25.51203,16.56779,1.885945,6.16603,4.174391,-5.273077,-19.65542,19.10748,-21.73499,-15.81143,19.10748,1.688308,-23.15586,19.10748,
638520715767340012,248595,16.02249,0.3611731,18.268,16.47737,25.51203,16.56779,1.885945,6.16603,4.174391,-5.263628,-19.6202,19.07323,-21.69604,-15.7831,19.07323,1.685282,-23.11436,19.07323,
638520715767450102,248606,16.02249,0.3611731,18.268,16.47737,25.51203,16.56779,1.885945,6.16603,4.174391,-5.254835,-19.58742,19.04137,-21.6598,-15.75673,19.04137,1.682467,-23.07575,19.04137,
638520715767563656,248617,16.02249,0.3611731,18.268,16.47737,25.51203,16.56779,1.885945,6.16603,4.174391,-5.245494,-19.5526,19.00753,-21.6213,-15.72872,19.00753,1.679476,-23.03473,19.00753,
638520715767673662,248628,16.02249,0.3611731,18.268,16.47737,25.51203,16.56779,1.885945,6.16603,4.174391,-5.236023,-19.5173,18.97321,-21.58226,-15.70032,18.97321,1.676444,-22.99314,18.97321,
638520715767778816,248639,16.02249,0.3611731,18.268,16.47737,25.51203,16.56779,1.885945,6.16603,4.174391,-5.227196,-19.4844,18.94122,-21.54587,-15.67385,18.94122,1.673618,-22.95437,18.94122,
638520715767898955,248650,16.02249,0.3611731,18.268,16.47737,25.51203,16.56779,1.885945,6.16603,4.174391,-5.217787,-19.44933,18.90713,-21.50709,-15.64564,18.90713,1.670606,-22.91306,18.90713,
638520715768008959,248662,16.02249,0.3611731,18.268,16.47737,25.51203,16.56779,1.885945,6.16603,4.174391,-5.208625,-19.41518,18.87393,-21.46933,-15.61817,18.87393,1.667672,-22.87283,18.87393,
638520715768118949,248673,16.02249,0.3611731,18.268,16.47737,25.51203,16.56779,1.885945,6.16603,4.174391,-5.198843,-19.37871,18.83848,-21.42901,-15.58883,18.83848,1.66454,-22.82987,18.83848,
638520715768238958,248684,16.02249,0.3611731,18.268,16.47737,25.51203,16.56779,1.885945,6.16603,4.174391,-5.189941,-19.34553,18.80622,-21.39232,-15.56214,18.80622,1.66169,-22.79078,18.80622,
638520715768348955,248696,16.02249,0.3611731,18.268,16.47737,25.51203,16.56779,1.885945,6.16603,4.174391,-5.180517,-19.3104,18.77208,-21.35347,-15.53388,18.77208,1.658673,-22.74939,18.77208,
638520715768462554,248707,16.02249,0.3611731,18.268,16.47737,25.51203,16.56779,1.885945,6.16603,4.174391,-5.171287,-19.276,18.73863,-21.31543,-15.5062,18.73863,1.655718,-22.70886,18.73863,
638520715768568223,248718,16.02249,0.3611731,18.268,16.47737,25.51203,16.56779,1.885945,6.16603,4.174391,-5.161575,-19.2398,18.70344,-21.27539,-15.47708,18.70344,1.652608,-22.66621,18.70344,
638520715768688216,248730,16.02249,0.3611731,18.268,16.47737,25.51203,16.56779,1.885945,6.16603,4.174391,-5.152565,-19.20621,18.67079,-21.23826,-15.45007,18.67079,1.649724,-22.62665,18.67079,
638520715768798327,248741,16.02249,0.3611731,18.268,16.47737,25.51203,16.56779,1.885945,6.16603,4.174391,-5.142791,-19.16978,18.63537,-21.19797,-15.42076,18.63537,1.646594,-22.58372,18.63537,
638520715768918325,248752,16.02249,0.3611731,18.268,16.47737,25.51203,16.56779,1.885945,6.16603,4.174391,-5.13367,-19.13578,18.60232,-21.16037,-15.39341,18.60232,1.643674,-22.54367,18.60232,
638520715769028328,248763,16.02249,0.3611731,18.268,16.47737,25.51203,16.56779,1.885945,6.16603,4.174391,-5.124383,-19.10116,18.56867,-21.12209,-15.36556,18.56867,1.6407,-22.50289,18.56867,
638520715769138328,248775,16.02249,0.3611731,18.268,16.47737,25.51203,16.56779,1.885945,6.16603,4.174391,-5.115169,-19.06681,18.53528,-21.08411,-15.33793,18.53528,1.63775,-22.46242,18.53528,
638520715769248334,248786,16.02249,0.3611731,18.268,16.47737,25.51203,16.56779,1.885945,6.16603,4.174391,-5.105937,-19.0324,18.50183,-21.04606,-15.31025,18.50183,1.634794,-22.42188,18.50183,
638520715769358336,248797,16.02249,0.3611731,18.268,16.47737,25.51203,16.56779,1.885945,6.16603,4.174391,-5.096616,-18.99766,18.46805,-21.00764,-15.2823,18.46805,1.63181,-22.38095,18.46805,
638520715769468452,248808,16.02249,0.3611731,18.268,16.47737,25.51203,16.56779,1.885945,6.16603,4.174391,-5.087057,-18.96203,18.43341,-20.96824,-15.25364,18.43341,1.62875,-22.33898,18.43341,
638520715769588557,248820,16.02249,0.3611731,18.268,16.47737,25.51203,16.56779,1.885945,6.16603,4.174391,-5.077909,-18.92793,18.40027,-20.93053,-15.22621,18.40027,1.625821,-22.29881,18.40027,
638520715769698556,248831,16.02249,0.3611731,18.268,16.47737,25.51203,16.56779,1.885945,6.16603,4.174391,-5.068532,-18.89298,18.36629,-20.89188,-15.19809,18.36629,1.622819,-22.25763,18.36629,
638520715769808567,248842,16.02249,0.3611731,18.268,16.47737,25.51203,16.56779,1.885945,6.16603,4.174391,-5.05929,-18.85853,18.3328,-20.85378,-15.17037,18.3328,1.61986,-22.21704,18.3328,
638520715769928577,248854,16.02249,0.3611731,18.268,16.47737,25.51203,16.56779,1.885945,6.16603,4.174391,-5.050156,-18.82448,18.2997,-20.81614,-15.14298,18.2997,1.616935,-22.17693,18.2997,
638520715770038572,248865,16.02249,0.3611731,18.268,16.47737,25.51203,16.56779,1.885945,6.16603,4.174391,-5.040013,-18.78667,18.26294,-20.77433,-15.11257,18.26294,1.613688,-22.13239,18.26294,
638520715770138582,248875,16.02249,0.3611731,18.268,16.47737,25.51203,16.56779,1.885945,6.16603,4.174391,-5.031404,-18.75458,18.23175,-20.73885,-15.08676,18.23175,1.610931,-22.09459,18.23175,
638520715770258584,248886,16.02249,0.3611731,18.268,16.47737,25.51203,16.56779,1.885945,6.16603,4.174391,-5.022437,-18.72116,18.19926,-20.70188,-15.05987,18.19926,1.60806,-22.05521,18.19926,
638520715770368573,248898,16.02249,0.3611731,18.268,16.47737,25.51203,16.56779,1.885945,6.16603,4.174391,-5.013284,-18.68704,18.16609,-20.66415,-15.03242,18.16609,1.60513,-22.01501,18.16609,
638520715770478565,248909,16.02249,0.3611731,18.268,16.47737,25.51203,16.56779,1.885945,6.16603,4.174391,-5.003702,-18.65132,18.13137,-20.62466,-15.00369,18.13137,1.602062,-21.97294,18.13137,
638520715770590111,248920,16.02249,0.3611731,18.268,16.47737,25.51203,16.56779,1.885945,6.16603,4.174391,-4.994895,-18.61849,18.09945,-20.58836,-14.97728,18.09945,1.599242,-21.93426,18.09945,
638520715770700105,248931,16.02249,0.3611731,18.268,16.47737,25.51203,16.56779,1.885945,6.16603,4.174391,-4.985435,-18.58323,18.06518,-20.54937,-14.94892,18.06518,1.596213,-21.89272,18.06518,
638520715770810220,248942,16.02249,0.3611731,18.268,16.47737,25.51203,16.56779,1.885945,6.16603,4.174391,-4.976417,-18.54962,18.0325,-20.5122,-14.92188,18.0325,1.593326,-21.85312,18.0325,
638520715770919614,248953,16.02249,0.3611731,18.268,16.47737,25.51203,16.56779,1.885945,6.16603,4.174391,-4.967029,-18.51462,17.99848,-20.4735,-14.89372,17.99848,1.59032,-21.8119,17.99848,
638520715771039602,248965,16.02249,0.3611731,18.268,16.47737,25.51203,16.56779,1.885945,6.16603,4.174391,-4.958081,-18.48127,17.96606,-20.43661,-14.86689,17.96606,1.587455,-21.7726,17.96606,
638520715771139607,248975,16.02249,0.3611731,18.268,16.47737,25.51203,16.56779,1.885945,6.16603,4.174391,-4.948486,-18.44551,17.93129,-20.39707,-14.83812,17.93129,1.584383,-21.73047,17.93129,
638520715771249607,248986,16.02249,0.3611731,18.268,16.47737,25.51203,16.56779,1.885945,6.16603,4.174391,-4.939798,-18.41312,17.89981,-20.36126,-14.81207,17.89981,1.581602,-21.69232,17.89981,
638520715771359615,248997,16.02249,0.3611731,18.268,16.47737,25.51203,16.56779,1.885945,6.16603,4.174391,-4.930562,-18.3787,17.86634,-20.32319,-14.78438,17.86634,1.578645,-21.65176,17.86634,
638520715771475460,249008,16.02249,0.3611731,18.268,16.47737,25.51203,16.56779,1.885945,6.16603,4.174391,-4.921421,-18.34462,17.83322,-20.28551,-14.75697,17.83322,1.575718,-21.61162,17.83322,
638520715771585462,249020,16.02249,0.3611731,18.268,16.47737,25.51203,16.56779,1.885945,6.16603,4.174391,-4.912223,-18.31034,17.79989,-20.24759,-14.72939,17.79989,1.572773,-21.57123,17.79989,
638520715771695474,249031,16.02249,0.3611731,18.268,16.47737,25.51203,16.56779,1.885945,6.16603,4.174391,-4.902867,-18.27546,17.76599,-20.20903,-14.70133,17.76599,1.569777,-21.53014,17.76599,
638520715771810659,249042,16.02249,0.3611731,18.268,16.47737,25.51203,16.56779,1.885945,6.16603,4.174391,-4.893926,-18.24213,17.73359,-20.17217,-14.67452,17.73359,1.566915,-21.49088,17.73359,
638520715771925492,249053,16.02249,0.3611731,18.268,16.47737,25.51203,16.56779,1.885945,6.16603,4.174391,-4.884686,-18.20769,17.70011,-20.13409,-14.64682,17.70011,1.563956,-21.4503,17.70011,
638520715772025501,249064,16.02249,0.3611731,18.268,16.47737,25.51203,16.56779,1.885945,6.16603,4.174391,-4.875234,-18.17246,17.66586,-20.09513,-14.61847,17.66586,1.56093,-21.4088,17.66586,
638520715772135492,249075,16.02249,0.3611731,18.268,16.47737,25.51203,16.56779,1.885945,6.16603,4.174391,-4.86629,-18.13912,17.63345,-20.05827,-14.59165,17.63345,1.558066,-21.36952,17.63345,
638520715772245503,249086,16.02249,0.3611731,18.268,16.47737,25.51203,16.56779,1.885945,6.16603,4.174391,-4.857099,-18.10486,17.60015,-20.02038,-14.56409,17.60015,1.555124,-21.32916,17.60015,
638520715772365489,249097,16.02249,0.3611731,18.268,16.47737,25.51203,16.56779,1.885945,6.16603,4.174391,-4.84796,-18.0708,17.56703,-19.98272,-14.53669,17.56703,1.552198,-21.28903,17.56703,
638520715772470671,249109,16.02249,0.3611731,18.268,16.47737,25.51203,16.56779,1.885945,6.16603,4.174391,-4.83876,-18.0365,17.53369,-19.94479,-14.5091,17.53369,1.549252,-21.24863,17.53369,
638520715772580671,249120,16.02249,0.3611731,18.268,16.47737,25.51203,16.56779,1.885945,6.16603,4.174391,-4.829397,-18.0016,17.49976,-19.9062,-14.48103,17.49976,1.546254,-21.20751,17.49976,
638520715772700667,249131,16.02249,0.3611731,18.268,16.47737,25.51203,16.56779,1.885945,6.16603,4.174391,-4.820225,-17.96741,17.46653,-19.86839,-14.45352,17.46653,1.543318,-21.16723,17.46653,
638520715772808310,249142,16.02249,0.3611731,18.268,16.47737,25.51203,16.56779,1.885945,6.16603,4.174391,-4.810805,-17.9323,17.4324,-19.82957,-14.42528,17.4324,1.540302,-21.12587,17.4324,
638520715772918432,249153,16.02249,0.3611731,18.268,16.47737,25.51203,16.56779,1.885945,6.16603,4.174391,-4.802018,-17.89955,17.40055,-19.79334,-14.39893,17.40055,1.537488,-21.08728,17.40055,
638520715773028433,249164,16.02249,0.3611731,18.268,16.47737,25.51203,16.56779,1.885945,6.16603,4.174391,-4.792568,-17.86432,17.36631,-19.75439,-14.37059,17.36631,1.534463,-21.04578,17.36631,
638520715773138447,249175,16.02249,0.3611731,18.268,16.47737,25.51203,16.56779,1.885945,6.16603,4.174391,-4.783284,-17.82971,17.33267,-19.71612,-14.34275,17.33267,1.53149,-21.00501,17.33267,
638520715773248438,249186,16.02249,0.3611731,18.268,16.47737,25.51203,16.56779,1.885945,6.16603,4.174391,-4.774223,-17.79594,17.29984,-19.67878,-14.31559,17.29984,1.528589,-20.96523,17.29984,
638520715773368435,249198,16.02249,0.3611731,18.268,16.47737,25.51203,16.56779,1.885945,6.16603,4.174391,-4.765098,-17.76193,17.26677,-19.64116,-14.28822,17.26677,1.525668,-20.92515,17.26677,
638520715773468543,249208,16.02249,0.3611731,18.268,16.47737,25.51203,16.56779,1.885945,6.16603,4.174391,-4.755477,-17.72606,17.23191,-19.60151,-14.25937,17.23191,1.522587,-20.8829,17.23191,
638520715773588544,249220,16.02249,0.3611731,18.268,16.47737,25.51203,16.56779,1.885945,6.16603,4.174391,-4.746859,-17.69394,17.20068,-19.56598,-14.23353,17.20068,1.519828,-20.84506,17.20068,
638520715773698548,249231,16.02249,0.3611731,18.268,16.47737,25.51203,16.56779,1.885945,6.16603,4.174391,-4.737196,-17.65792,17.16567,-19.52615,-14.20456,17.16567,1.516734,-20.80263,17.16567,
638520715773808676,249242,16.02249,0.3611731,18.268,16.47737,25.51203,16.56779,1.885945,6.16603,4.174391,-4.728357,-17.62497,17.13364,-19.48972,-14.17805,17.13364,1.513904,-20.76381,17.13364,
638520715773918660,249253,16.02249,0.3611731,18.268,16.47737,25.51203,16.56779,1.885945,6.16603,4.174391,-4.718994,-17.59007,17.09971,-19.45112,-14.14997,17.09971,1.510906,-20.72269,17.09971,
638520715774026613,249264,16.02249,0.3611731,18.268,16.47737,25.51203,16.56779,1.885945,6.16603,4.174391,-4.709866,-17.55605,17.06663,-19.4135,-14.1226,17.06663,1.507983,-20.68261,17.06663,
638520715774146615,249275,16.02249,0.3611731,18.268,16.47737,25.51203,16.56779,1.885945,6.16603,4.174391,-4.700612,-17.52155,17.0331,-19.37536,-14.09486,17.0331,1.505021,-20.64197,17.0331,
638520715774246630,249286,16.02249,0.3611731,18.268,16.47737,25.51203,16.56779,1.885945,6.16603,4.174391,-4.691429,-17.48732,16.99983,-19.33751,-14.06732,16.99983,1.50208,-20.60165,16.99983,
638520715774366622,249298,16.02249,0.3611731,18.268,16.47737,25.51203,16.56779,1.885945,6.16603,4.174391,-4.682308,-17.45333,16.96678,-19.29991,-14.03997,16.96678,1.49916,-20.56159,16.96678,
638520715774471807,249308,16.02249,0.3611731,18.268,16.47737,25.51203,16.56779,1.885945,6.16603,4.174391,-4.672763,-17.41775,16.93219,-19.26057,-14.01135,16.93219,1.496104,-20.51968,16.93219,
638520715774581797,249320,16.02249,0.3611731,18.268,16.47737,25.51203,16.56779,1.885945,6.16603,4.174391,-4.664071,-17.38535,16.90069,-19.22474,-13.98529,16.90069,1.493321,-20.48151,16.90069,
638520715774691794,249330,16.02249,0.3611731,18.268,16.47737,25.51203,16.56779,1.885945,6.16603,4.174391,-4.654698,-17.35041,16.86673,-19.18611,-13.95718,16.86673,1.49032,-20.44035,16.86673,
638520715774801797,249342,16.02249,0.3611731,18.268,16.47737,25.51203,16.56779,1.885945,6.16603,4.174391,-4.645721,-17.31695,16.8342,-19.14911,-13.93026,16.8342,1.487446,-20.40093,16.8342,
638520715774921922,249353,16.02249,0.3611731,18.268,16.47737,25.51203,16.56779,1.885945,6.16603,4.174391,-4.636483,-17.28251,16.80073,-19.11103,-13.90256,16.80073,1.484488,-20.36036,16.80073,
638520715775031918,249364,16.02249,0.3611731,18.268,16.47737,25.51203,16.56779,1.885945,6.16603,4.174391,-4.627219,-17.24798,16.76716,-19.07285,-13.87479,16.76716,1.481522,-20.31968,16.76716,
638520715775141925,249375,16.02249,0.3611731,18.268,16.47737,25.51203,16.56779,1.885945,6.16603,4.174391,-4.617792,-17.21284,16.733,-19.03399,-13.84652,16.733,1.478504,-20.27828,16.733,
638520715775251920,249386,16.02249,0.3611731,18.268,16.47737,25.51203,16.56779,1.885945,6.16603,4.174391,-4.608809,-17.17936,16.70045,-18.99696,-13.81958,16.70045,1.475628,-20.23884,16.70045,
638520715775361921,249397,16.02249,0.3611731,18.268,16.47737,25.51203,16.56779,1.885945,6.16603,4.174391,-4.599603,-17.14505,16.66709,-18.95902,-13.79198,16.66709,1.47268,-20.19841,16.66709,
638520715775472063,249409,16.02249,0.3611731,18.268,16.47737,25.51203,16.56779,1.885945,6.16603,4.174391,-4.590344,-17.11053,16.63354,-18.92085,-13.76422,16.63354,1.469716,-20.15776,16.63354,
638520715775592058,249420,16.02249,0.3611731,18.268,16.47737,25.51203,16.56779,1.885945,6.16603,4.174391,-4.580936,-17.07547,16.59945,-18.88208,-13.73601,16.59945,1.466703,-20.11644,16.59945,
