time(100ns),time_stamp(ms),object1.x,object1.y,object1.z,
638520713869712993,58833,0,5,10,
638520713869772983,58839,0.04529914,4.932561,10,
638520713869852979,58847,0.06404374,4.904655,10,
638520713869972983,58858,0.08525793,4.873073,10,
638520713870072975,58869,0.1166323,4.826364,10,
638520713870192978,58880,0.1470197,4.781125,10,
638520713870302977,58891,0.1789171,4.733638,10,
638520713870412973,58902,0.2087907,4.689164,10,
638520713870521816,58913,0.2399086,4.642837,10,
638520713870631758,58924,0.2709676,4.596598,10,
638520713870741762,58935,0.3017593,4.550757,10,
638520713870861769,58947,0.3326762,4.50473,10,
638520713870971760,58958,0.3647749,4.456943,10,
638520713871091756,58970,0.3951985,4.41165,10,
638520713871264265,58988,0.430301,4.359391,10,
638520713871354379,58997,0.4780828,4.288256,10,
638520713871444402,59005,0.503707,4.250108,10,
638520713871623817,59023,0.52824,4.213585,10,
638520713871673820,59029,0.5761358,4.14228,10,
638520713871743829,59035,0.5932497,4.116802,10,
638520713871853818,59047,0.6108312,4.090627,10,
638520713871963821,59057,0.6427233,4.043148,10,
638520713872073815,59069,0.6730993,3.997926,10,
638520713872183819,59080,0.7040154,3.9519,10,
638520713872299009,59091,0.7355481,3.904956,10,
638520713872409020,59102,0.7660345,3.859569,10,
638520713872519019,59113,0.7970785,3.813352,10,
638520713872629154,59124,0.8286087,3.766412,10,
638520713872739149,59135,0.8587341,3.721563,10,
638520713872859140,59147,0.8900853,3.674889,10,
638520713872969145,59158,0.9215873,3.62799,10,
638520713873079156,59169,0.9521825,3.582442,10,
638520713873189151,59180,0.9830781,3.536446,10,
638520713873299144,59191,1.013836,3.490656,10,
638520713873419162,59202,1.045333,3.443765,10,
638520713873524540,59214,1.077359,3.396086,10,
638520713873634448,59224,1.10835,3.349948,10,
638520713873751234,59236,1.138725,3.304727,10,
638520713873853044,59247,1.170046,3.258098,10,
638520713873973056,59258,1.200845,3.212247,10,
638520713874083053,59269,1.232178,3.165599,10,
638520713874193048,59280,1.263018,3.119687,10,
638520713874303051,59291,1.294187,3.073284,10,
638520713874413045,59302,1.324645,3.02794,10,
638520713874523051,59314,1.356022,2.981227,10,
638520713874633042,59325,1.387081,2.934988,10,
638520713874748727,59336,1.417657,2.889469,10,
638520713874858718,59347,1.449111,2.842642,10,
638520713874968711,59358,1.48018,2.796388,10,
638520713875078709,59369,1.510857,2.750717,10,
638520713875188716,59380,1.541217,2.705518,10,
638520713875298723,59391,1.572127,2.659502,10,
638520713875418728,59403,1.603585,2.612668,10,
638520713875531216,59414,1.635659,2.564919,10,
638520713875641106,59425,1.667368,2.517712,10,
638520713875751120,59437,1.698792,2.47093,10,
638520713875871118,59448,1.729985,2.424491,10,
638520713875981109,59459,1.761216,2.377996,10,
638520713876091099,59470,1.792747,2.331055,10,
638520713876211107,59482,1.824064,2.284431,10,
638520713876311101,59493,1.856171,2.236633,10,
638520713876433658,59504,1.886353,2.1917,10,
638520713876543650,59515,1.918149,2.144362,10,
638520713876663647,59527,1.949669,2.097438,10,
638520713876773657,59538,1.982324,2.048823,10,
638520713876883657,59549,2.012712,2.003582,10,
638520713876993662,59560,2.044469,1.956305,10,
638520713877103643,59571,2.075234,1.910502,10,
638520713877213648,59583,2.105871,1.864892,10,
638520713877323674,59594,2.137022,1.818516,10,
638520713877433641,59605,2.168286,1.771973,10,
638520713877553647,59616,2.198663,1.726749,10,
638520713877653637,59627,2.23016,1.679858,10,
638520713877773655,59638,2.260478,1.634723,10,
638520713877883652,59649,2.291614,1.588369,10,
638520713877993640,59661,2.323268,1.541244,10,
638520713878103657,59671,2.354916,1.494128,10,
638520713878213651,59682,2.384559,1.449997,10,
638520713878330709,59694,2.415525,1.403897,10,
638520713878440700,59705,2.447687,1.356016,10,
638520713878556425,59716,2.478077,1.310773,10,
638520713878666439,59727,2.509679,1.263725,10,
638520713878766543,59738,2.540281,1.218166,10,
638520713878886668,59749,2.570293,1.173487,10,
638520713878986659,59760,2.60219,1.126,10,
638520713879106660,59772,2.632275,1.081211,10,
638520713879216668,59783,2.663911,1.034114,10,
638520713879326671,59793,2.694691,0.9882894,10,
638520713879436658,59805,2.724985,0.9431891,10,
638520713879546673,59816,2.756111,0.8968511,10,
638520713879656675,59827,2.787813,0.8496542,10,
638520713879776678,59838,2.818551,0.8038936,10,
638520713879876675,59849,2.850141,0.7568641,10,
638520713879996669,59860,2.880415,0.7117934,10,
638520713880106666,59871,2.91107,0.6661568,10,
638520713880216671,59883,2.941778,0.6204395,10,
638520713880326660,59893,2.97393,0.5725741,10,
638520713880436665,59905,3.003857,0.5280199,10,
638520713880546782,59916,3.034852,0.4818759,10,
638520713880656769,59927,3.066813,0.4342942,10,
638520713880766766,59938,3.097469,0.3886547,10,
638520713880876775,59949,3.128217,0.3428783,10,
638520713880996776,59961,3.158759,0.29741,10,
638520713881106774,59971,3.190742,0.2497945,10,
638520713881216776,59982,3.220934,0.2048464,10,
638520713881326770,59994,3.251889,0.1587625,10,
638520713881435299,60005,3.282574,0.1130805,10,
638520713881545304,60016,3.313669,0.06678772,10,
638520713881655293,60027,3.344873,0.02033281,10,
638520713881775406,60038,3.375827,-0.02574921,10,
638520713881875411,60049,3.407208,-0.0724678,10,
638520713881985399,60060,3.437273,-0.1172261,10,
638520713882095416,60071,3.467969,-0.1629262,10,
638520713882215415,60082,3.499132,-0.2093201,10,
638520713882325417,60094,3.529996,-0.2552686,10,
638520713882435404,60105,3.561752,-0.3025446,10,
638520713882545400,60116,3.592554,-0.3484006,10,
638520713882655408,60127,3.623083,-0.3938503,10,
638520713882765511,60138,3.654494,-0.4406142,10,
638520713882875521,60149,3.684589,-0.4854174,10,
638520713882985531,60160,3.71623,-0.5325236,10,
638520713883105517,60171,3.746951,-0.5782595,10,
638520713883215520,60182,3.778429,-0.6251211,10,
638520713883325517,60194,3.809098,-0.6707797,10,
638520713883435510,60205,3.840065,-0.7168813,10,
638520713883545530,60216,3.87143,-0.763577,10,
638520713883655513,60227,3.902998,-0.8105741,10,
638520713883765636,60238,3.932985,-0.855217,10,
638520713883882965,60249,3.963896,-0.9012356,10,
638520713883992970,60260,3.994719,-0.9471221,10,
638520713884102961,60271,4.025883,-0.9935179,10,
638520713884212971,60282,4.056624,-1.039283,10,
638520713884322963,60293,4.087947,-1.085915,10,
638520713884432971,60304,4.118959,-1.132083,10,
638520713884542968,60316,4.149462,-1.177495,10,
638520713884662967,60327,4.180505,-1.22371,10,
638520713884762978,60338,4.212294,-1.271036,10,
638520713884882969,60349,4.242687,-1.316283,10,
638520713884992970,60360,4.273404,-1.362013,10,
638520713885102969,60371,4.304151,-1.407787,10,
638520713885212971,60382,4.335555,-1.45454,10,
638520713885322959,60394,4.366868,-1.501157,10,
638520713885432970,60404,4.398365,-1.548048,10,
638520713885542963,60416,4.428223,-1.5925,10,
638520713885652962,60427,4.460059,-1.639894,10,
638520713885773093,60438,4.49053,-1.685259,10,
638520713885873093,60449,4.521835,-1.731863,10,
638520713885993093,60460,4.552154,-1.776999,10,
638520713886103088,60471,4.582927,-1.822813,10,
638520713886213090,60483,4.61388,-1.868894,10,
638520713886323088,60493,4.646609,-1.91762,10,
638520713886430753,60504,4.675738,-1.960986,10,
638520713886550751,60516,4.707134,-2.007726,10,
638520713886650775,60527,4.738628,-2.054613,10,
638520713886771190,60538,4.768798,-2.099528,10,
638520713886881192,60549,4.79997,-2.145936,10,
638520713886991199,60560,4.831861,-2.193413,10,
638520713887101197,60571,4.862086,-2.238411,10,
638520713887211204,60582,4.892878,-2.284251,10,
638520713887326398,60593,4.924708,-2.331639,10,
638520713887436396,60604,4.95471,-2.376304,10,
638520713887546391,60616,4.985512,-2.422161,10,
638520713887656396,60627,5.016959,-2.468977,10,
638520713887766513,60638,5.047599,-2.514593,10,
638520713887876513,60649,5.078826,-2.561082,10,
638520713887986510,60660,5.110155,-2.607723,10,
638520713888096501,60671,5.140791,-2.653333,10,
638520713888216511,60682,5.172024,-2.69983,10,
638520713888326513,60694,5.203174,-2.746204,10,
638520713888426507,60704,5.234265,-2.792491,10,
638520713888546511,60715,5.26402,-2.836788,10,
638520713888656509,60726,5.295058,-2.882996,10,
638520713888761815,60738,5.326033,-2.92911,10,
638520713888879478,60749,5.357439,-2.975865,10,
638520713888989475,60760,5.388584,-3.022232,10,
638520713889099472,60771,5.419223,-3.067846,10,
638520713889209482,60782,5.450202,-3.113966,10,
638520713889319475,60793,5.481157,-3.160049,10,
638520713889429469,60804,5.512086,-3.206095,10,
638520713889549470,60816,5.543101,-3.252268,10,
638520713889659486,60827,5.574567,-3.299114,10,
638520713889769619,60838,5.605189,-3.344702,10,
638520713889879616,60849,5.636607,-3.391476,10,
638520713889989622,60860,5.668691,-3.439241,10,
638520713890099617,60871,5.697599,-3.482279,10,
638520713890209631,60882,5.728666,-3.528528,10,
638520713890319645,60893,5.759709,-3.574744,10,
638520713890429619,60904,5.791239,-3.621683,10,
638520713890549614,60916,5.82156,-3.666824,10,
638520713890659626,60927,5.853369,-3.71418,10,
638520713890759620,60937,5.88449,-3.760511,10,
638520713890879617,60949,5.914319,-3.804918,10,
638520713890989620,60960,5.945367,-3.851141,10,
638520713891099625,60971,5.976519,-3.897518,10,
638520713891209623,60982,6.007328,-3.943386,10,
638520713891319636,60993,6.038599,-3.989941,10,
638520713891429629,61004,6.069441,-4.035857,10,
638520713891539620,61015,6.101148,-4.083059,10,
638520713891649623,61026,6.131608,-4.128407,10,
638520713891769615,61038,6.162357,-4.174184,10,
638520713891879619,61049,6.193931,-4.221189,10,
638520713891989621,61060,6.224113,-4.266123,10,
638520713892099612,61071,6.229469,-4.274097,10,
638520713892209621,61082,6.184272,-4.241413,10,
638520713892319620,61093,6.139901,-4.209326,10,
638520713892429619,61104,6.094799,-4.176709,10,
638520713892539609,61115,6.050029,-4.144334,10,
638520713892649626,61126,6.0036,-4.110758,10,
638520713892769735,61138,5.959588,-4.07893,10,
638520713892879741,61149,5.913404,-4.045531,10,
638520713892989749,61160,5.869328,-4.013659,10,
638520713893099729,61171,5.824505,-3.981244,10,
638520713893209741,61182,5.779584,-3.948759,10,
638520713893319735,61193,5.734703,-3.916303,10,
638520713893429736,61204,5.690325,-3.884211,10,
638520713893539737,61215,5.64364,-3.85045,10,
638520713893659743,61227,5.599957,-3.81886,10,
638520713893759731,61237,5.552423,-3.784485,10,
638520713893879737,61249,5.509519,-3.753458,10,
638520713893986439,61260,5.462584,-3.719517,10,
638520713894096440,61271,5.418926,-3.687944,10,
638520713894206447,61282,5.374673,-3.655943,10,
638520713894316443,61293,5.329858,-3.623534,10,
638520713894436454,61304,5.28413,-3.590466,10,
638520713894536455,61315,5.238517,-3.55748,10,
638520713894656451,61326,5.19425,-3.525468,10,
638520713894756561,61337,5.148816,-3.492612,10,
638520713894876557,61348,5.10526,-3.461115,10,
638520713894986553,61360,5.059913,-3.428321,10,
638520713895106567,61372,5.013476,-3.394739,10,
638520713895216559,61382,4.966163,-3.360524,10,
638520713895316554,61393,4.923144,-3.329414,10,
638520713895426548,61404,4.878654,-3.297241,10,
638520713895546550,61415,4.834166,-3.265069,10,
638520713895656565,61426,4.788794,-3.232258,10,
638520713895766692,61437,4.744376,-3.200137,10,
638520713895876700,61448,4.698988,-3.167315,10,
638520713895986701,61460,4.65436,-3.135041,10,
638520713896096691,61471,4.609456,-3.102568,10,
638520713896206696,61482,4.56442,-3.07,10,
638520713896316697,61493,4.519323,-3.037388,10,
638520713896422890,61504,4.473797,-3.004465,10,
638520713896542898,61515,4.430278,-2.972994,10,
638520713896652893,61526,4.383975,-2.939509,10,
638520713896758339,61537,4.340321,-2.90794,10,
638520713896878323,61549,4.294434,-2.874757,10,
638520713896988325,61560,4.248774,-2.841738,10,
638520713897098330,61570,4.203728,-2.809163,10,
638520713897208324,61582,4.160254,-2.777724,10,
638520713897318324,61593,4.114051,-2.744313,10,
638520713897428323,61604,4.069232,-2.711902,10,
638520713897538323,61615,4.025284,-2.68012,10,
638520713897648338,61626,3.980078,-2.64743,10,
638520713897758766,61637,3.934905,-2.614762,10,
638520713897868775,61648,3.890173,-2.582415,10,
638520713897988760,61660,3.844568,-2.549435,10,
638520713898098764,61671,3.798941,-2.516439,10,
638520713898208761,61682,3.75453,-2.484324,10,
638520713898318779,61693,3.709778,-2.451961,10,
638520713898428769,61704,3.663915,-2.418794,10,
638520713898538782,61715,3.620213,-2.387191,10,
638520713898648780,61726,3.5748,-2.354351,10,
638520713898759194,61737,3.529222,-2.32139,10,
638520713898869179,61748,3.484399,-2.288976,10,
638520713898979183,61759,3.439369,-2.256412,10,
638520713899089177,61770,3.394677,-2.224092,10,
638520713899209185,61782,3.349991,-2.191778,10,
638520713899319177,61793,3.304871,-2.159149,10,
638520713899429441,61804,3.25923,-2.126143,10,
638520713899539186,61815,3.21339,-2.092994,10,
638520713899649188,61826,3.169909,-2.06155,10,
638520713899759697,61837,3.125126,-2.029165,10,
638520713899879701,61849,3.079568,-1.99622,10,
638520713899999712,61861,3.032143,-1.961924,10,
638520713900089697,61870,2.984997,-1.92783,10,
638520713900209706,61882,2.94523,-1.899072,10,
638520713900319703,61893,2.898464,-1.865253,10,
638520713900429703,61904,2.854711,-1.833613,10,
638520713900549702,61916,2.810023,-1.801296,10,
638520713900659702,61927,2.761632,-1.766302,10,
638520713900760172,61937,2.716751,-1.733846,10,
638520713900870162,61948,2.674369,-1.703197,10,
638520713900980168,61959,2.629726,-1.670914,10,
638520713901090173,61970,2.584388,-1.638127,10,
638520713901200162,61982,2.539233,-1.605473,10,
638520713901320160,61993,2.494482,-1.573111,10,
638520713901430166,62004,2.449376,-1.540492,10,
638520713901540170,62015,2.404716,-1.508196,10,
638520713901650173,62026,2.357792,-1.474263,10,
638520713901760680,62037,2.314727,-1.44312,10,
638520713901870679,62048,2.26892,-1.409994,10,
638520713901980682,62059,2.225131,-1.378328,10,
638520713902090672,62070,2.180068,-1.34574,10,
638520713902200684,62082,2.135152,-1.313259,10,
638520713902310681,62092,2.089241,-1.280058,10,
638520713902430675,62104,2.044991,-1.248058,10,
638520713902540682,62115,1.999601,-1.215235,10,
638520713902650683,62126,1.95451,-1.182627,10,
638520713902761092,62137,1.909565,-1.150125,10,
638520713902871095,62148,1.864478,-1.11752,10,
638520713902981094,62159,1.818926,-1.084579,10,
638520713903091091,62170,1.774597,-1.052522,10,
638520713903201104,62182,1.729758,-1.020095,10,
638520713903321093,62193,1.683518,-0.9866567,10,
638520713903431089,62204,1.638886,-0.954381,10,
638520713903541100,62215,1.594052,-0.9219589,10,
638520713903651086,62226,1.549556,-0.889781,10,
638520713903761491,62237,1.504164,-0.8569555,10,
638520713903871634,62248,1.460098,-0.8250885,10,
638520713903981604,62259,1.414319,-0.7919831,10,
638520713904091598,62270,1.369653,-0.7596822,10,
638520713904201599,62281,1.324699,-0.7271738,10,
638520713904311609,62292,1.279933,-0.6948013,10,
638520713904421605,62303,1.235086,-0.6623697,10,
638520713904531622,62315,1.190229,-0.6299314,10,
638520713904651608,62326,1.144785,-0.5970683,10,
638520713904762969,62337,1.099797,-0.5645356,10,
638520713904872990,62348,1.054274,-0.5316148,10,
638520713904982977,62359,1.010144,-0.499702,10,
638520713905092984,62370,0.9645947,-0.4667625,10,
638520713905202991,62382,0.9197301,-0.4343185,10,
638520713905312970,62393,0.8727971,-0.4003787,10,
638520713905422986,62404,0.829353,-0.3689618,10,
638520713905532970,62415,0.784625,-0.3366165,10,
638520713905652990,62426,0.7391592,-0.3037376,10,
638520713905763094,62437,0.6939474,-0.2710423,10,
638520713905873098,62448,0.6490702,-0.2385893,10,
638520713905983109,62459,0.6044438,-0.2063174,10,
638520713906093102,62470,0.5597932,-0.1740279,10,
638520713906203102,62481,0.5142293,-0.141078,10,
638520713906313108,62492,0.4692979,-0.1085854,10,
638520713906421130,62503,0.4243858,-0.07610703,10,
638520713906531126,62515,0.3802108,-0.0441618,10,
638520713906651124,62526,0.3348528,-0.01136065,10,
638520713906751558,62537,0.289489,0.02144432,10,
638520713906871561,62548,0.2451832,0.05348444,10,
638520713906981561,62559,0.2002039,0.08601141,10,
638520713907091566,62570,0.1548235,0.1188283,10,
638520713907201562,62581,0.1105266,0.1508617,10,
638520713907321563,62593,0.0642962,0.1842933,10,
638520713907420774,62603,0.01845964,0.2174401,10,
638520713907540786,62615,-0.02562785,0.2493224,10,
638520713907650778,62626,-0.07032429,0.2816448,10,
638520713907761193,62637,-0.1152898,0.3141618,10,
638520713907871191,62648,-0.1600052,0.346498,10,
638520713907981185,62659,-0.2062717,0.3799558,10,
638520713908091188,62670,-0.2507744,0.412138,10,
638520713908201194,62681,-0.2951994,0.4442644,10,
638520713908311195,62692,-0.3401114,0.4767427,10,
638520713908431199,62704,-0.3855177,0.5095787,10,
638520713908531189,62715,-0.4322683,0.5433865,10,
638520713908651188,62726,-0.4756245,0.5747399,10,
638520713908751306,62737,-0.5205563,0.6072326,10,
638520713908871444,62748,-0.5649104,0.6393075,10,
638520713908981444,62759,-0.6100481,0.6719489,10,
638520713909091440,62770,-0.6564806,0.7055268,10,
638520713909201446,62781,-0.7001994,0.7371426,10,
638520713909311442,62792,-0.745523,0.7699184,10,
638520713909421434,62803,-0.7902333,0.8022509,10,
638520713909531436,62814,-0.8347713,0.8344588,10,
638520713909651440,62826,-0.8798077,0.8670273,10,
638520713909761571,62837,-0.9258124,0.9002957,10,
638520713909871582,62848,-0.9727165,0.9342146,10,
638520713909971582,62859,-1.017007,0.9662433,10,
638520713910091568,62870,-1.05903,0.9966326,10,
638520713910211578,62882,-1.104088,1.029216,10,
638520713910311586,62893,-1.152573,1.064279,10,
638520713910421590,62903,-1.197014,1.096417,10,
638520713910541576,62915,-1.240533,1.127888,10,
638520713910651593,62926,-1.286822,1.161362,10,
638520713910751681,62937,-1.331339,1.193555,10,
638520713910871673,62948,-1.37502,1.225142,10,
638520713910971684,62959,-1.4202,1.257815,10,
638520713911091684,62970,-1.463526,1.289146,10,
638520713911201672,62981,-1.409744,1.271428,10,
638520713911311687,62992,-1.357432,1.254194,10,
638520713911431793,63004,-1.304872,1.236879,10,
638520713911531800,63014,-1.249466,1.218626,10,
638520713911651798,63026,-1.199068,1.202022,10,
638520713911751796,63036,-1.144747,1.184126,10,
638520713911871800,63048,-1.094252,1.167491,10,
638520713911981797,63059,-1.040392,1.149747,10,
638520713912091804,63070,-0.9875996,1.132355,10,
638520713912201803,63081,-0.9359194,1.115329,10,
638520713912311828,63092,-0.8833046,1.097995,10,
638520713912421792,63103,-0.8299176,1.080407,10,
638520713912531817,63114,-0.7777734,1.063229,10,
638520713912641813,63125,-0.723913,1.045485,10,
638520713912751801,63136,-0.6716648,1.028272,10,
638520713912861794,63148,-0.6190348,1.010933,10,
638520713912981804,63159,-0.56591,0.9934311,10,
638520713913081803,63170,-0.5126222,0.9758759,10,
638520713913201797,63181,-0.4615366,0.9590459,10,
638520713913311802,63192,-0.4086663,0.941628,10,
638520713913421792,63203,-0.3552836,0.9240413,10,
638520713913531811,63214,-0.3012731,0.9062481,10,
638520713913641810,63225,-0.2487086,0.8889313,10,
638520713913751795,63236,-0.1966471,0.8717799,10,
638520713913871903,63248,-0.1447014,0.8546667,10,
638520713913971897,63259,-0.09026254,0.8367319,10,
638520713914091893,63270,-0.03923293,0.8199205,10,
638520713914201902,63281,0.01387338,0.8024249,10,
638520713914311900,63292,0.06663872,0.7850418,10,
638520713914421891,63303,0.1189334,0.7678137,10,
638520713914531902,63315,0.1720526,0.7503138,10,
638520713914641920,63326,0.2269777,0.7322187,10,
638520713914752012,63336,0.2788265,0.7151375,10,
638520713914862027,63348,0.3304032,0.6981459,10,
638520713914972026,63359,0.3831605,0.6807652,10,
638520713915092015,63370,0.4360004,0.6633573,10,
638520713915202017,63381,0.489063,0.6458759,10,
638520713915312015,63392,0.5426807,0.628212,10,
638520713915422011,63403,0.5958303,0.610702,10,
638520713915532007,63414,0.647027,0.5938358,10,
638520713915642013,63425,0.6996508,0.576499,10,
