time(100ns),time_stamp(ms),object1.x,object1.y,object1.z,
638549095252009464,418003,0,5,10,
638549095252069465,418009,0.05729209,4.936199,10,
638549095252169480,418019,0.07982054,4.911111,10,
638549095252279474,418030,0.1109208,4.876477,10,
638549095252379480,418040,0.1459012,4.837523,10,
638549095252479476,418049,0.1798648,4.7997,10,
638549095252589462,418061,0.2128829,4.762931,10,
638549095252709478,418073,0.2527598,4.718524,10,
638549095252809475,418082,0.2905257,4.676467,10,
638549095252919806,418094,0.3236641,4.639564,10,
638549095253029813,418105,0.3617864,4.59711,10,
638549095253139807,418116,0.3982879,4.556461,10,
638549095253249820,418127,0.4344145,4.51623,10,
638549095253364891,418139,0.4734328,4.472779,10,
638549095253484889,418150,0.5103355,4.431684,10,
638549095253599995,418161,0.5500089,4.387503,10,
638549095253695114,418171,0.587256,4.346024,10,
638549095253805103,418182,0.6198406,4.309738,10,
638549095253915161,418194,0.6565799,4.268824,10,
638549095254030215,418205,0.6953947,4.225599,10,
638549095254140202,418215,0.7316115,4.185268,10,
638549095254250219,418227,0.7682874,4.144425,10,
638549095254365288,418238,0.8060696,4.102351,10,
638549095254475288,418249,0.8428062,4.06144,10,
638549095254585278,418260,0.8796458,4.020415,10,
638549095254695288,418271,0.9173518,3.978425,10,
638549095254805280,418282,0.9539592,3.937659,10,
638549095254915280,418294,0.9905137,3.896951,10,
638549095255030395,418304,1.029231,3.853835,10,
638549095255140389,418315,1.065018,3.813982,10,
638549095255250397,418327,1.101807,3.773014,10,
638549095255360387,418338,1.140848,3.729537,10,
638549095255470392,418349,1.176946,3.689338,10,
638549095255590394,418361,1.213074,3.649106,10,
638549095255700396,418371,1.252609,3.605079,10,
638549095255810386,418382,1.289254,3.564271,10,
638549095255920385,418394,1.326385,3.522921,10,
638549095256040384,418406,1.365427,3.479444,10,
638549095256150401,418417,1.40319,3.437389,10,
638549095256260387,418428,1.440154,3.396226,10,
638549095256380388,418439,1.477945,3.354141,10,
638549095256490386,418450,1.516134,3.311614,10,
638549095256600403,418462,1.553455,3.270052,10,
638549095256720399,418474,1.591453,3.227737,10,
638549095256830403,418485,1.630439,3.184323,10,
638549095256940397,418496,1.667799,3.142718,10,
638549095257060393,418508,1.705423,3.100819,10,
638549095257160392,418518,1.743721,3.05817,10,
638549095257280389,418530,1.779705,3.018097,10,
638549095257395487,418542,1.818459,2.974941,10,
638549095257505735,418552,1.857447,2.931523,10,
638549095257615728,418563,1.893217,2.89169,10,
638549095257725726,418575,1.930142,2.850569,10,
638549095257835736,418585,1.967687,2.808758,10,
638549095257945733,418597,2.004302,2.767983,10,
638549095258070835,418608,2.042147,2.725839,10,
638549095258170842,418619,2.081053,2.682513,10,
638549095258280841,418630,2.115333,2.644339,10,
638549095258390839,418641,2.153078,2.602305,10,
638549095258505966,418652,2.190359,2.560788,10,
638549095258615969,418664,2.227193,2.51977,10,
638549095258731120,418675,2.265602,2.476997,10,
638549095258831097,418685,2.303954,2.434288,10,
638549095258951099,418697,2.337996,2.396378,10,
638549095259061110,418708,2.375297,2.354839,10,
638549095259171103,418719,2.413934,2.311813,10,
638549095259281097,418730,2.449591,2.272104,10,
638549095259401093,418742,2.486709,2.230769,10,
638549095259506179,418752,2.526019,2.186993,10,
638549095259616182,418763,2.560534,2.148557,10,
638549095259731298,418775,2.598336,2.10646,10,
638549095259841302,418785,2.636475,2.063988,10,
638549095259951301,418797,2.672094,2.024322,10,
638549095260071301,418809,2.709501,1.982665,10,
638549095260171294,418819,2.749564,1.938051,10,
638549095260281301,418830,2.783298,1.900484,10,
638549095260401303,418841,2.820994,1.858505,10,
638549095260506406,418852,2.859279,1.815871,10,
638549095260616405,418863,2.894516,1.77663,10,
638549095260731537,418875,2.932076,1.734802,10,
638549095260831519,418885,2.972724,1.689537,10,
638549095260951523,418896,3.006048,1.652427,10,
638549095261061521,418908,3.043235,1.611015,10,
638549095261171522,418919,3.081081,1.568869,10,
638549095261281524,418930,3.118421,1.527286,10,
638549095261401524,418942,3.154364,1.487261,10,
638549095261506653,418952,3.192831,1.444423,10,
638549095261616647,418963,3.22858,1.404612,10,
638549095261721770,418974,3.266223,1.362692,10,
638549095261831773,418985,3.303457,1.321229,10,
638549095261951768,418997,3.339782,1.280776,10,
638549095262061783,419008,3.377687,1.238565,10,
638549095262171777,419019,3.416241,1.195631,10,
638549095262281785,419030,3.451829,1.155999,10,
638549095262401777,419042,3.490091,1.11339,10,
638549095262502093,419052,3.527739,1.071465,10,
638549095262612086,419063,3.562759,1.032466,10,
638549095262727228,419075,3.60038,0.990571,10,
638549095262837220,419086,3.638994,0.9475698,10,
638549095262947222,419097,3.674374,0.9081702,10,
638549095263057231,419108,3.711529,0.8667936,10,
638549095263172372,419119,3.748884,0.8251948,10,
638549095263282363,419130,3.786022,0.7838368,10,
638549095263402382,419142,3.822686,0.7430077,10,
638549095263502378,419152,3.861982,0.6992474,10,
638549095263612375,419163,3.897232,0.6599922,10,
638549095263732373,419175,3.934048,0.6189938,10,
638549095263842387,419186,3.972949,0.5756731,10,
638549095263952377,419197,4.008805,0.5357437,10,
638549095264062370,419208,4.045646,0.4947171,10,
638549095264172371,419219,4.084392,0.4515686,10,
638549095264282386,419230,4.120043,0.4118676,10,
638549095264399099,419242,4.15743,0.3702326,10,
638549095264499105,419252,4.196004,0.3272762,10,
638549095264609088,419263,4.230816,0.2885089,10,
638549095264725903,419275,4.268131,0.246954,10,
638549095264835884,419285,4.306051,0.2047262,10,
638549095264945881,419296,4.341653,0.1650791,10,
638549095265055904,419308,4.379272,0.1231866,10,
638549095265165891,419318,4.41691,0.0812726,10,
638549095265275892,419330,4.452869,0.04122734,10,
638549095265396243,419341,4.490526,-0.0007076263,10,
638549095265506248,419352,4.528122,-0.04257441,10,
638549095265616244,419363,4.564602,-0.0831995,10,
638549095265720949,419374,4.601773,-0.1245933,10,
638549095265830945,419385,4.639614,-0.1667337,10,
638549095265940948,419396,4.675643,-0.2068567,10,
638549095266060948,419408,4.713144,-0.2486181,10,
638549095266170944,419418,4.751195,-0.2909923,10,
638549095266281193,419430,4.786863,-0.3307128,10,
638549095266391199,419441,4.824114,-0.3721962,10,
638549095266501199,419452,4.862106,-0.4145041,10,
638549095266621198,419464,4.89849,-0.4550223,10,
638549095266721193,419474,4.937696,-0.498682,10,
638549095266831183,419485,4.973232,-0.5382552,10,
638549095266941194,419496,5.009437,-0.5785737,10,
638549095267061190,419508,5.04676,-0.6201372,10,
638549095267171193,419518,5.08503,-0.662755,10,
638549095267281190,419530,5.120844,-0.7026391,10,
638549095267391197,419541,5.158913,-0.7450328,10,
638549095267506322,419552,5.196308,-0.7866755,10,
638549095267616317,419563,5.232772,-0.8272824,10,
638549095267736312,419575,5.269657,-0.8683577,10,
638549095267836325,419585,5.309252,-0.9124517,10,
638549095267946319,419596,5.34347,-0.9505572,10,
638549095268056321,419608,5.380619,-0.9919262,10,
638549095268166328,419619,5.419199,-1.03489,10,
638549095268276327,419630,5.455199,-1.074979,10,
638549095268396321,419641,5.492128,-1.116105,10,
638549095268506325,419652,5.53021,-1.158512,10,
638549095268616318,419663,5.566852,-1.199318,10,
638549095268726316,419675,5.603588,-1.240227,10,
638549095268836322,419685,5.64205,-1.283059,10,
638549095268946324,419696,5.677391,-1.322415,10,
638549095269056330,419707,5.715342,-1.364678,10,
638549095269171432,419719,5.75212,-1.405635,10,
638549095269281422,419730,5.789338,-1.44708,10,
638549095269401439,419742,5.826261,-1.488198,10,
638549095269501705,419752,5.866385,-1.532881,10,
638549095269611715,419763,5.900249,-1.570592,10,
638549095269721713,419774,5.937395,-1.611959,10,
638549095269831710,419785,5.974719,-1.653523,10,
638549095269941723,419796,6.011242,-1.694197,10,
638549095270061715,419808,6.049098,-1.736352,10,
638549095270161717,419818,6.087109,-1.778683,10,
638549095270271999,419829,6.122632,-1.818242,10,
638549095270391998,419841,6.15985,-1.859687,10,
638549095270502007,419852,6.197681,-1.901817,10,
638549095270612017,419863,6.234111,-1.942386,10,
638549095270732000,419875,6.271282,-1.98378,10,
638549095270832070,419885,6.27261,-1.985258,10,
638549095270941998,419896,6.236886,-1.949832,10,
638549095271051995,419907,6.196842,-1.910123,10,
638549095271161997,419918,6.157044,-1.870656,10,
638549095271271994,419929,6.118493,-1.832427,10,
638549095271391996,419941,6.078758,-1.793024,10,
638549095271502012,419951,6.03702,-1.751633,10,
638549095271612010,419963,6.000304,-1.715223,10,
638549095271722275,419974,5.960431,-1.675683,10,
638549095271832274,419985,5.920747,-1.63633,10,
638549095271942276,419996,5.88207,-1.597975,10,
638549095272062278,420008,5.841673,-1.557915,10,
638549095272162286,420018,5.801155,-1.517735,10,
638549095272272269,420029,5.763533,-1.480426,10,
638549095272392282,420041,5.723863,-1.441087,10,
638549095272502269,420052,5.68368,-1.401239,10,
638549095272612273,420063,5.644504,-1.36239,10,
638549095272722567,420074,5.605814,-1.324022,10,
638549095272832564,420085,5.564313,-1.282867,10,
638549095272942561,420096,5.527464,-1.246325,10,
638549095273052563,420107,5.487397,-1.206592,10,
638549095273162564,420118,5.447367,-1.166896,10,
638549095273272777,420129,5.408529,-1.128382,10,
638549095273392789,420141,5.368964,-1.089147,10,
638549095273492787,420151,5.328456,-1.048976,10,
638549095273612787,420163,5.290363,-1.0112,10,
638549095273717926,420174,5.249998,-0.9711719,10,
638549095273827926,420185,5.211049,-0.9325476,10,
638549095273943015,420196,5.17196,-0.8937845,10,
638549095274063028,420208,5.132667,-0.8548193,10,
638549095274163030,420218,5.091283,-0.8137803,10,
638549095274273304,420229,5.05389,-0.7766991,10,
638549095274383306,420241,5.013691,-0.7368355,10,
638549095274493299,420251,4.974212,-0.6976862,10,
638549095274613313,420263,4.935856,-0.6596503,10,
638549095274723307,420274,4.895897,-0.6200247,10,
638549095274833306,420285,4.854488,-0.5789604,10,
638549095274943312,420296,4.816878,-0.5416636,10,
638549095275053305,420307,4.777256,-0.5023723,10,
638549095275163305,420318,4.737237,-0.4626875,10,
638549095275273613,420329,4.699086,-0.4248538,10,
638549095275393614,420341,4.659223,-0.385323,10,
638549095275493609,420351,4.618755,-0.3451934,10,
638549095275603617,420363,4.581167,-0.3079181,10,
638549095275723618,420374,4.540884,-0.267971,10,
638549095275833625,420385,4.501295,-0.2287121,10,
638549095275943623,420396,4.462599,-0.1903386,10,
638549095276053618,420407,4.422776,-0.1508479,10,
638549095276163618,420418,4.382289,-0.1106982,10,
638549095276273615,420429,4.344297,-0.07302332,10,
638549095276383617,420440,4.304775,-0.03383064,10,
638549095276493625,420451,4.264637,0.005972385,10,
638549095276613621,420463,4.225775,0.04450989,10,
638549095276723622,420474,4.184971,0.08497381,10,
638549095276833619,420485,4.144487,0.1251202,10,
638549095276943612,420496,4.107401,0.1618967,10,
638549095277053622,420507,4.068113,0.2008572,10,
638549095277163621,420518,4.028405,0.2402344,10,
638549095277273621,420529,3.989533,0.2787824,10,
638549095277393624,420542,3.949683,0.3182998,10,
638549095277493627,420551,3.907481,0.3601499,10,
638549095277603611,420562,3.871041,0.3962865,10,
638549095277723620,420574,3.831349,0.435648,10,
638549095277833616,420585,3.791131,0.4755301,10,
638549095277943619,420596,3.752494,0.513845,10,
638549095278063615,420608,3.712782,0.553226,10,
638549095278163616,420618,3.672126,0.5935431,10,
638549095278273614,420629,3.634015,0.6313362,10,
638549095278393621,420641,3.594472,0.6705503,10,
638549095278493620,420651,3.554154,0.7105322,10,
638549095278613617,420663,3.515616,0.7487483,10,
638549095278723811,420674,3.47558,0.7884512,10,
638549095278823805,420685,3.434891,0.8288007,10,
638549095278943813,420696,3.397589,0.8657918,10,
638549095279053809,420707,3.357522,0.9055252,10,
638549095279163810,420718,3.31808,0.9446383,10,
638549095279274084,420729,3.279304,0.9830909,10,
638549095279394081,420741,3.239543,1.02252,10,
638549095279494085,420751,3.198986,1.062739,10,
638549095279604075,420762,3.161638,1.099776,10,
638549095279714085,420774,3.1213,1.139778,10,
638549095279824075,420784,3.081742,1.179006,10,
638549095279944089,420796,3.042859,1.217565,10,
638549095280064082,420808,3.003019,1.257073,10,
638549095280164088,420818,2.962417,1.297336,10,
638549095280274087,420829,2.92444,1.334997,10,
638549095280384090,420840,2.884976,1.374131,10,
638549095280494084,420851,2.845382,1.413396,10,
638549095280604076,420862,2.806504,1.451949,10,
638549095280724090,420874,2.766678,1.491443,10,
638549095280824076,420885,2.726344,1.531441,10,
638549095280944083,420896,2.687832,1.569633,10,
638549095281054086,420907,2.647148,1.609977,10,
638549095281164085,420918,2.608129,1.64867,10,
638549095281274095,420929,2.569414,1.687063,10,
638549095281394091,420941,2.52992,1.726228,10,
638549095281504089,420952,2.489649,1.766163,10,
638549095281604087,420962,2.449444,1.806033,10,
638549095281724084,420974,2.41139,1.84377,10,
638549095281824080,420985,2.371749,1.88308,10,
638549095281944086,420996,2.332969,1.921536,10,
638549095282054090,421008,2.293114,1.96106,10,
638549095282164086,421018,2.252068,2.001764,10,
638549095282274082,421029,2.214197,2.039319,10,
638549095282384084,421040,2.174744,2.078443,10,
638549095282494080,421051,2.134834,2.11802,10,
638549095282604083,421062,2.096448,2.156086,10,
638549095282724084,421074,2.057131,2.195076,10,
638549095282824083,421084,2.015788,2.236074,10,
638549095282934083,421096,1.977844,2.273702,10,
638549095283054080,421107,1.93832,2.312896,10,
638549095283164085,421118,1.89764,2.353237,10,
638549095283274080,421129,1.860011,2.390552,10,
638549095283394259,421141,1.82041,2.429823,10,
638549095283504257,421152,1.77706,2.472812,10,
638549095283614260,421163,1.738616,2.510935,10,
638549095283729369,421174,1.69758,2.551629,10,
638549095283829375,421185,1.658704,2.59018,10,
638549095283939380,421196,1.621062,2.627509,10,
638549095284069379,421208,1.581966,2.66628,10,
638549095284169393,421219,1.539475,2.708416,10,
638549095284274525,421229,1.500726,2.746842,10,
638549095284389641,421241,1.463755,2.783504,10,
638549095284494736,421251,1.42372,2.823205,10,
638549095284604750,421262,1.386054,2.860558,10,
638549095284724742,421274,1.347961,2.898334,10,
638549095284824747,421285,1.305071,2.940866,10,
638549095284944748,421296,1.26716,2.978461,10,
638549095285054745,421307,1.22695,3.018335,10,
638549095285159836,421318,1.187248,3.057706,10,
638549095285279832,421329,1.148739,3.095895,10,
638549095285389832,421341,1.108594,3.135705,10,
638549095285489826,421351,1.068176,3.175786,10,
638549095285599827,421362,1.031286,3.212368,10,
638549095285719829,421373,0.9922132,3.251115,10,
638549095285819844,421384,0.952288,3.290708,10,
638549095285939841,421395,0.9138286,3.328846,10,
638549095286049827,421407,0.8740606,3.368283,10,
638549095286159825,421418,0.8336433,3.408363,10,
638549095286269829,421429,0.7954775,3.446211,10,
638549095286379834,421440,0.7557628,3.485594,10,
638549095286489826,421451,0.7150635,3.525954,10,
638549095286599833,421462,0.677659,3.563047,10,
638549095286714909,421474,0.637204,3.603165,10,
638549095286824912,421484,0.597535,3.642503,10,
638549095286940007,421495,0.5589897,3.680727,10,
638549095287050004,421507,0.5191773,3.720207,10,
638549095287160010,421518,0.4794906,3.759563,10,
638549095287270007,421529,0.4407508,3.79798,10,
638549095287390009,421540,0.4008397,3.837558,10,
638549095287495116,421551,0.3598323,3.878224,10,
638549095287605114,421562,0.3224845,3.91526,10,
638549095287710212,421573,0.2823309,3.955079,10,
638549095287820215,421584,0.2427585,3.994322,10,
638549095287940214,421595,0.2041341,4.032624,10,
638549095288050215,421607,0.1640157,4.072408,10,
638549095288160218,421617,0.1238543,4.112235,10,
638549095288270220,421629,0.08604995,4.149724,10,
638549095288380219,421640,0.04569402,4.189743,10,
638549095288485318,421651,0.006308031,4.228801,10,
638549095288605305,421662,-0.03258163,4.267366,10,
638549095288720410,421674,-0.07251472,4.306967,10,
638549095288820404,421684,-0.1138282,4.347936,10,
638549095288940400,421695,-0.1508326,4.384632,10,
638549095289050393,421707,-0.1908076,4.424273,10,
638549095289160402,421717,-0.2312203,4.464349,10,
638549095289270394,421729,-0.269089,4.501902,10,
638549095289380582,421740,-0.3087416,4.541224,10,
638549095289490591,421751,-0.3493403,4.581484,10,
638549095289600593,421762,-0.3873978,4.619225,10,
638549095289720784,421773,-0.428008,4.659496,10,
638549095289830801,421785,-0.4677731,4.69893,10,
638549095289940791,421796,-0.5074687,4.738295,10,
638549095290050797,421807,-0.5463111,4.776813,10,
638549095290160790,421818,-0.586682,4.816847,10,
638549095290270781,421829,-0.6246418,4.854491,10,
638549095290381042,421840,-0.6636564,4.89318,10,
638549095290501051,421851,-0.7035267,4.932718,10,
638549095290601038,421862,-0.7445596,4.973409,10,
638549095290716169,421874,-0.7819585,5.010496,10,
638549095290826167,421884,-0.8235457,5.051736,10,
638549095290936171,421895,-0.8603542,5.088238,10,
638549095291046177,421906,-0.9003334,5.127884,10,
638549095291156172,421917,-0.9401792,5.167397,10,
638549095291276170,421929,-0.9789868,5.205882,10,
638549095291386162,421940,-1.020446,5.246995,10,
638549095291486168,421951,-1.058672,5.284903,10,
638549095291606170,421962,-1.097441,5.323348,10,
638549095291711286,421973,-1.137615,5.363188,10,
638549095291831292,421984,-1.176842,5.402087,10,
638549095291941293,421996,-1.216978,5.441889,10,
638549095292061286,422008,-1.256815,5.481394,10,
638549095292161284,422018,-1.299567,5.523789,10,
638549095292271292,422029,-1.33672,5.560632,10,
638549095292391520,422041,-1.375359,5.598949,10,
638549095292491512,422051,-1.416427,5.639675,10,
638549095292611512,422062,-1.453758,5.676695,10,
638549095292726624,422074,-1.493723,5.716326,10,
638549095292826625,422085,-1.536092,5.758343,10,
638549095292946636,422096,-1.572223,5.794172,10,
638549095293056622,422107,-1.613651,5.835255,10,
638549095293156631,422117,-1.652479,5.873759,10,
638549095293276633,422129,-1.688983,5.909959,10,
638549095293386637,422140,-1.730745,5.951373,10,
638549095293486629,422151,-1.769479,5.989784,10,
638549095293601707,422162,-1.807727,6.027713,10,
638549095293711872,422173,-1.846749,6.06641,10,
638549095293821868,422184,-1.887161,6.106485,10,
638549095293931871,422195,-1.925453,6.144458,10,
638549095294081888,422209,-1.964761,6.183438,10,
638549095294191884,422221,-2.015291,6.233546,10,
638549095294291879,422231,-2.054948,6.272873,10,
638549095294412146,422243,-2.093473,6.311077,10,
638549095294522149,422254,-2.133801,6.351068,10,
638549095294627280,422265,-2.1731,6.39004,10,
638549095294747261,422276,-2.211795,6.428412,10,
638549095294847250,422287,-2.253137,6.469409,10,
638549095294967252,422298,-2.290616,6.506576,10,
638549095295077239,422309,-2.330083,6.545714,10,
638549095295187246,422320,-2.370428,6.585722,10,
638549095295297249,422332,-2.408745,6.62372,10,
638549095295407246,422343,-2.449423,6.664059,10,
638549095295597248,422361,-2.488758,6.703066,10,
638549095295647241,422366,-2.552851,6.766624,10,
638549095295707241,422373,-2.574114,6.78771,10,
638549095295787243,422381,-2.595478,6.808896,10,
638549095295907240,422392,-2.623785,6.836967,10,
638549095296017257,422403,-2.664779,6.877619,10,
638549095296127250,422414,-2.703519,6.916037,10,
638549095296237242,422425,-2.742786,6.954976,10,
638549095296347240,422436,-2.782842,6.994698,10,
638549095296457261,422447,-2.821319,7.032854,10,
638549095296567250,422459,-2.860682,7.071888,10,
638549095296677254,422470,-2.901277,7.112145,10,
638549095296787247,422481,-2.940291,7.150834,10,
638549095296907253,422492,-2.979204,7.189423,10,
638549095297017251,422503,-3.019277,7.229161,10,
638549095297127251,422514,-3.058614,7.268171,10,
638549095297237243,422525,-3.097521,7.306754,10,
