time(100ns),time_stamp(ms),object1.x,object1.y,object1.z,
638524991312541084,356091,0,5,10,
638524991312601075,356097,0.07232158,4.960723,10,
638524991312691080,356105,0.09803224,4.946761,10,
638524991312801083,356116,0.1347144,4.926839,10,
638524991312911181,356128,0.1833583,4.900422,10,
638524991313021181,356139,0.232091,4.873956,10,
638524991313131274,356150,0.2807231,4.847545,10,
638524991313241285,356161,0.3296474,4.820975,10,
638524991313351274,356172,0.3786613,4.794356,10,
638524991313461291,356183,0.4271506,4.768023,10,
638524991313572879,356194,0.4768201,4.741048,10,
638524991313688782,356206,0.5257224,4.71449,10,
638524991313798510,356216,0.5749807,4.687739,10,
638524991313908599,356228,0.6223715,4.662003,10,
638524991314018592,356239,0.6715941,4.635271,10,
638524991314128603,356250,0.7204341,4.608747,10,
638524991314238598,356261,0.7690864,4.582325,10,
638524991314348606,356272,0.817493,4.556036,10,
638524991314458592,356283,0.8664599,4.529443,10,
638524991314578596,356294,0.9151878,4.50298,10,
638524991314688596,356305,0.9637759,4.476593,10,
638524991314798597,356317,1.013304,4.449696,10,
638524991314908700,356327,1.063003,4.422705,10,
638524991315018698,356338,1.110051,4.397154,10,
638524991315128697,356350,1.159152,4.370488,10,
638524991315238702,356361,1.20781,4.344063,10,
638524991315348711,356372,1.256789,4.317464,10,
638524991315458700,356383,1.305801,4.290846,10,
638524991315568695,356394,1.354443,4.26443,10,
638524991315688703,356405,1.40301,4.238054,10,
638524991315798702,356416,1.452502,4.211176,10,
638524991315908790,356427,1.500801,4.184946,10,
638524991316018793,356439,1.549208,4.158657,10,
638524991316128784,356450,1.598682,4.131789,10,
638524991316248796,356461,1.647796,4.105116,10,
638524991316358801,356472,1.69765,4.078041,10,
638524991316468788,356484,1.746925,4.051281,10,
638524991316578788,356495,1.79659,4.024309,10,
638524991316698786,356506,1.846271,3.997328,10,
638524991316808785,356517,1.895894,3.970379,10,
638524991316918900,356529,1.945637,3.943365,10,
638524991317028894,356540,1.996012,3.916007,10,
638524991317148903,356551,2.044573,3.889634,10,
638524991317258908,356563,2.094063,3.862757,10,
638524991317368905,356574,2.145023,3.835082,10,
638524991317488895,356585,2.193561,3.808722,10,
638524991317598908,356597,2.243093,3.781822,10,
638524991317708905,356608,2.292863,3.754793,10,
638524991317828899,356619,2.342577,3.727795,10,
638524991317938989,356630,2.391785,3.701071,10,
638524991318048998,356642,2.441336,3.67416,10,
638524991318159103,356653,2.490764,3.647317,10,
638524991318269102,356664,2.539335,3.620939,10,
638524991318379097,356675,2.58736,3.594857,10,
638524991318489095,356686,2.636186,3.568341,10,
638524991318599102,356697,2.68511,3.541772,10,
638524991318709190,356708,2.733832,3.515312,10,
638524991318829195,356719,2.782507,3.488878,10,
638524991318939193,356730,2.831642,3.462193,10,
638524991319049184,356741,2.880563,3.435626,10,
638524991319169196,356753,2.929,3.40932,10,
638524991319269184,356764,2.980388,3.381412,10,
638524991319389202,356775,3.027947,3.355584,10,
638524991319499197,356786,3.077549,3.328646,10,
638524991319599188,356797,3.12541,3.302654,10,
638524991319709191,356808,3.173245,3.276675,10,
638524991319829190,356819,3.221921,3.250241,10,
638524991319939190,356830,3.271561,3.223282,10,
638524991320049188,356841,3.319934,3.197011,10,
638524991320159184,356852,3.36813,3.170837,10,
638524991320269185,356864,3.416653,3.144485,10,
638524991320379188,356875,3.46582,3.117784,10,
638524991320489190,356886,3.514994,3.091079,10,
638524991320599300,356897,3.563262,3.064866,10,
638524991320709304,356908,3.613192,3.03775,10,
638524991320829306,356919,3.661259,3.011645,10,
638524991320939307,356930,3.71028,2.985023,10,
638524991321049322,356942,3.758959,2.958586,10,
638524991321159305,356952,3.808317,2.931781,10,
638524991321266376,356964,3.856342,2.905699,10,
638524991321386367,356975,3.905604,2.878946,10,
638524991321496367,356986,3.954817,2.85222,10,
638524991321606365,356997,4.003407,2.825832,10,
638524991321716364,357008,4.051681,2.799615,10,
638524991321826374,357019,4.100277,2.773224,10,
638524991321936362,357030,4.14918,2.746665,10,
638524991322046363,357041,4.19804,2.72013,10,
638524991322156371,357052,4.24679,2.693655,10,
638524991322266364,357063,4.295754,2.667064,10,
638524991322376369,357075,4.344123,2.640795,10,
638524991322486375,357086,4.393775,2.613831,10,
638524991322606358,357097,4.441858,2.587718,10,
638524991322716371,357108,4.491151,2.560948,10,
638524991322826363,357119,4.539483,2.5347,10,
638524991322936453,357130,4.587989,2.508357,10,
638524991323046454,357141,4.637223,2.481619,10,
638524991323151618,357152,4.685603,2.455345,10,
638524991323271625,357163,4.734582,2.428745,10,
638524991323381629,357175,4.783516,2.40217,10,
638524991323491620,357186,4.83243,2.375606,10,
638524991323601625,357197,4.880941,2.34926,10,
638524991323711632,357208,4.931126,2.322006,10,
638524991323821622,357219,4.978931,2.296044,10,
638524991323937026,357230,5.027085,2.269892,10,
638524991324047032,357241,5.076227,2.243205,10,
638524991324157029,357252,5.12544,2.216478,10,
638524991324267030,357263,5.173501,2.190377,10,
638524991324377021,357275,5.222499,2.163767,10,
638524991324487022,357285,5.271598,2.137103,10,
638524991324597028,357297,5.319836,2.110906,10,
638524991324707028,357308,5.369162,2.084118,10,
638524991324827032,357319,5.41807,2.057557,10,
638524991324937031,357330,5.466688,2.031153,10,
638524991325047028,357341,5.515473,2.004659,10,
638524991325157022,357352,5.564432,1.978071,10,
638524991325267020,357363,5.612717,1.951849,10,
638524991325377027,357375,5.661793,1.925196,10,
638524991325487024,357386,5.712175,1.897834,10,
638524991325597022,357397,5.75952,1.872123,10,
638524991325717023,357408,5.808646,1.845443,10,
638524991325817032,357419,5.85763,1.818841,10,
638524991325937137,357430,5.905596,1.792792,10,
638524991326047140,357441,5.95477,1.766087,10,
638524991326157128,357452,6.003348,1.739704,10,
638524991326267240,357463,6.052032,1.713265,10,
638524991326377242,357474,6.10092,1.686715,10,
638524991326487246,357485,6.150088,1.660013,10,
638524991326597254,357497,6.198421,1.633764,10,
638524991326707252,357508,6.247839,1.606926,10,
638524991326817243,357519,6.296577,1.580458,10,
638524991326937252,357530,6.344954,1.554186,10,
638524991327047251,357541,6.393684,1.527721,10,
638524991327157244,357552,6.442475,1.501224,10,
638524991327267244,357563,6.491059,1.474839,10,
638524991327377246,357575,6.540445,1.448018,10,
638524991327487248,357586,6.589495,1.42138,10,
638524991327597248,357597,6.638185,1.394938,10,
638524991327707246,357608,6.686656,1.368614,10,
638524991327817239,357619,6.735197,1.342252,10,
638524991327937367,357630,6.784412,1.315525,10,
638524991328047375,357641,6.833103,1.289082,10,
638524991328157495,357652,6.881691,1.262694,10,
638524991328267493,357663,6.930493,1.236191,10,
638524991328377496,357675,6.979413,1.209624,10,
638524991328487499,357685,7.028929,1.182733,10,
638524991328597497,357697,7.077377,1.156422,10,
638524991328707492,357708,7.125998,1.130017,10,
638524991328817505,357719,7.174731,1.103551,10,
638524991328937595,357730,7.223441,1.077098,10,
638524991329037597,357741,7.273602,1.049857,10,
638524991329157594,357752,7.321061,1.024082,10,
638524991329267594,357763,7.369471,0.9977918,10,
638524991329377583,357774,7.418485,0.9711733,10,
638524991329487589,357785,7.467083,0.9447803,10,
638524991329597595,357796,7.515838,0.9183025,10,
638524991329707593,357808,7.565089,0.8915553,10,
638524991329817590,357819,7.613891,0.8650522,10,
638524991329927694,357830,7.662981,0.8383923,10,
638524991330047690,357841,7.711505,0.8120394,10,
638524991330147690,357852,7.760554,0.7854018,10,
638524991330267683,357863,7.808635,0.7592897,10,
638524991330377686,357874,7.857596,0.7326999,10,
638524991330487684,357885,7.906312,0.7062435,10,
638524991330597795,357896,7.955129,0.6797318,10,
638524991330707784,357908,8.004031,0.6531739,10,
638524991330817783,357919,8.053777,0.6261582,10,
638524991330927897,357930,8.102531,0.5996804,10,
638524991331037900,357941,8.150888,0.5734186,10,
638524991331147894,357952,8.199867,0.5468192,10,
638524991331268481,357963,8.247965,0.5206985,10,
638524991331378483,357974,8.29766,0.49371,10,
638524991331488477,357985,8.345607,0.4676709,10,
638524991331598487,357996,8.394485,0.4411263,10,
638524991331708485,358008,8.443669,0.4144149,10,
638524991331818499,358019,8.492078,0.3881249,10,
638524991331933988,358030,8.541648,0.3612046,10,
638524991332043984,358041,8.589615,0.3351545,10,
638524991332153986,358052,8.638302,0.3087134,10,
638524991332263993,358063,8.687125,0.2821984,10,
638524991332373992,358074,8.736394,0.2554417,10,
638524991332483983,358085,8.784554,0.2292867,10,
638524991332603991,358097,8.833397,0.2027612,10,
638524991332703987,358107,8.883965,0.1752992,10,
638524991332823973,358119,8.931459,0.1495056,10,
638524991332934000,358130,8.980474,0.1228867,10,
638524991333043987,358141,9.029206,0.09642124,10,
638524991333154106,358152,9.077736,0.07006598,10,
638524991333264109,358163,9.126238,0.04372549,10,
638524991333374103,358174,9.17552,0.0169611,10,
638524991333484113,358185,9.224437,-0.009604454,10,
638524991333599290,358196,9.273543,-0.036273,10,
638524991333707022,358207,9.321974,-0.06257439,10,
638524991333817017,358218,9.370767,-0.0890727,10,
638524991333932721,358230,9.419122,-0.1153336,10,
638524991334041359,358241,9.468407,-0.1420994,10,
638524991334151353,358252,9.51678,-0.1683698,10,
638524991334261356,358263,9.565558,-0.1948605,10,
638524991334378878,358274,9.614764,-0.2215829,10,
638524991334478846,358285,9.663628,-0.2481198,10,
638524991334598878,358296,9.711778,-0.2742696,10,
638524991334708845,358307,9.761135,-0.3010745,10,
638524991334818845,358319,9.809445,-0.327311,10,
638524991334924050,358330,9.85985,-0.3546848,10,
638524991335044059,358341,9.907318,-0.3804636,10,
638524991335154057,358352,9.95585,-0.4068203,10,
638524991335264057,358363,10.00513,-0.4335842,10,
638524991335374070,358374,10.05403,-0.4601378,10,
638524991335484068,358385,10.10249,-0.4864583,10,
638524991335594058,358396,10.15123,-0.5129285,10,
638524991335704054,358407,10.20026,-0.5395522,10,
638524991335814045,358418,10.24871,-0.5658669,10,
638524991335934161,358430,10.29748,-0.59235,10,
638524991336044161,358441,10.34694,-0.6192141,10,
638524991336154157,358452,10.39544,-0.6455498,10,
638524991336264261,358463,10.44403,-0.6719418,10,
638524991336374271,358474,10.49316,-0.6986208,10,
638524991336484273,358485,10.54141,-0.7248273,10,
638524991336594286,358496,10.59041,-0.7514377,10,
638524991336704287,358507,10.63957,-0.778132,10,
638524991336814277,358518,10.6884,-0.8046541,10,
638524991336924382,358530,10.73703,-0.8310618,10,
638524991337034709,358540,10.78574,-0.8575139,10,
638524991337144701,358552,10.83434,-0.8839102,10,
638524991337264700,358563,10.8831,-0.9103918,10,
638524991337374705,358574,10.93196,-0.936924,10,
638524991337484705,358585,10.98103,-0.9635739,10,
638524991337594723,358596,11.02974,-0.9900289,10,
638524991337704709,358607,11.0788,-1.016673,10,
638524991337814715,358618,11.12743,-1.043083,10,
638524991337924810,358629,11.17578,-1.069338,10,
638524991338034809,358641,11.22471,-1.09591,10,
638524991338144924,358651,11.27403,-1.122698,10,
638524991338264932,358663,11.32213,-1.148818,10,
638524991338374926,358674,11.37135,-1.17555,10,
638524991338484931,358685,11.4202,-1.202079,10,
638524991338594921,358696,11.46891,-1.228531,10,
638524991338704931,358707,11.51761,-1.254981,10,
638524991338814921,358718,11.56707,-1.281841,10,
638524991338925023,358729,11.61539,-1.308081,10,
638524991339035430,358741,11.66397,-1.334466,10,
638524991339145422,358751,11.71357,-1.361403,10,
638524991339255430,358763,11.76116,-1.387248,10,
638524991339375422,358774,11.81051,-1.414048,10,
638524991339485435,358785,11.85909,-1.440428,10,
638524991339595422,358796,11.9077,-1.466829,10,
638524991339705431,358807,11.95664,-1.49341,10,
638524991339815427,358818,12.00574,-1.520072,10,
638524991339925555,358829,12.05427,-1.546429,10,
638524991340035551,358840,12.1033,-1.573058,10,
638524991340145538,358851,12.15196,-1.599483,10,
638524991340255554,358863,12.20047,-1.625827,10,
638524991340365540,358874,12.24962,-1.652521,10,
638524991340475545,358885,12.29823,-1.678917,10,
638524991340589103,358896,12.34667,-1.705223,10,
638524991340709021,358907,12.39599,-1.732011,10,
638524991340819025,358918,12.44511,-1.758685,10,
638524991340929037,358929,12.49374,-1.785097,10,
638524991341034217,358940,12.5421,-1.811361,10,
638524991341144234,358952,12.59164,-1.838262,10,
638524991341261520,358963,12.64033,-1.864707,10,
638524991341379790,358974,12.68864,-1.89094,10,
638524991341479526,358985,12.73998,-1.918825,10,
638524991341589532,358996,12.7863,-1.943977,10,
638524991341709520,359007,12.83532,-1.970603,10,
638524991341809516,359018,12.88457,-1.997348,10,
638524991341929644,359029,12.93245,-2.023348,10,
638524991342039631,359040,12.98162,-2.050052,10,
638524991342209626,359058,13.03047,-2.076581,10,
638524991342299629,359066,13.10664,-2.117948,10,
638524991342389610,359076,13.14509,-2.138828,10,
638524991342569617,359093,13.18555,-2.160803,10,
638524991342619626,359098,13.26196,-2.202297,10,
638524991342689633,359106,13.28587,-2.215281,10,
638524991342799634,359117,13.3189,-2.23322,10,
638524991342913639,359128,13.36596,-2.258778,10,
638524991343023641,359139,13.41466,-2.285228,10,
638524991343128845,359150,13.46371,-2.311863,10,
638524991343248843,359161,13.5123,-2.338252,10,
638524991343358833,359172,13.56147,-2.364954,10,
638524991343469065,359183,13.60993,-2.391273,10,
638524991343579050,359195,13.65854,-2.417675,10,
638524991343689055,359206,13.70847,-2.444789,10,
638524991343799066,359217,13.7569,-2.471093,10,
638524991343914567,359228,13.80511,-2.497273,10,
638524991344024576,359239,13.85407,-2.52386,10,
638524991344134569,359250,13.90262,-2.550226,10,
638524991344244577,359261,13.95164,-2.576852,10,
638524991344354568,359272,13.96925,-2.586413,10,
638524991344468490,359283,13.94513,-2.637117,10,
638524991344578483,359295,13.92166,-2.686447,10,
638524991344688485,359306,13.89722,-2.737826,10,
638524991344798497,359317,13.87364,-2.787404,10,
638524991344912304,359328,13.84993,-2.837248,10,
638524991345022316,359339,13.82615,-2.887247,10,
638524991345132334,359350,13.80222,-2.937553,10,
638524991345242313,359361,13.77829,-2.98787,10,
638524991345352322,359372,13.75434,-3.038225,10,
638524991345462313,359383,13.7307,-3.08791,10,
638524991345572318,359394,13.70664,-3.13849,10,
638524991345688469,359405,13.68306,-3.188072,10,
638524991345798492,359416,13.65924,-3.238154,10,
638524991345912492,359428,13.63536,-3.288343,10,
638524991346022487,359439,13.61141,-3.338695,10,
638524991346132504,359450,13.58762,-3.388721,10,
638524991346242500,359461,13.56358,-3.439246,10,
638524991346352481,359472,13.53957,-3.489717,10,
638524991346472486,359484,13.51518,-3.541009,10,
638524991346582498,359495,13.4912,-3.591406,10,
638524991346692478,359506,13.46712,-3.642034,10,
638524991346802510,359517,13.44293,-3.692894,10,
638524991346922493,359529,13.41867,-3.7439,10,
638524991347032503,359540,13.39472,-3.794233,10,
638524991347142487,359551,13.37051,-3.845142,10,
638524991347252500,359562,13.34659,-3.895435,10,
638524991347372492,359574,13.32221,-3.946681,10,
638524991347477630,359585,13.29823,-3.997106,10,
638524991347587654,359596,13.27429,-4.047432,10,
638524991347697639,359607,13.25058,-4.097282,10,
638524991347817638,359618,13.2267,-4.147482,10,
638524991347927639,359629,13.20228,-4.198811,10,
638524991348037635,359640,13.17908,-4.247581,10,
638524991348147633,359651,13.15504,-4.298128,10,
638524991348257635,359662,13.13119,-4.348276,10,
638524991348367637,359673,13.10744,-4.398203,10,
638524991348477628,359684,13.0836,-4.448309,10,
638524991348587650,359696,13.05981,-4.498333,10,
638524991348702896,359707,13.03561,-4.549213,10,
638524991348812897,359718,13.01205,-4.598742,10,
638524991348922897,359729,12.98812,-4.649048,10,
638524991349032897,359740,12.96384,-4.700092,10,
638524991349142895,359751,12.94007,-4.750069,10,
638524991349252899,359762,12.91675,-4.799091,10,
638524991349372901,359774,12.89267,-4.849708,10,
638524991349475446,359784,12.86865,-4.900203,10,
638524991349585440,359796,12.84514,-4.949634,10,
638524991349695439,359807,12.82112,-5.000138,10,
638524991349815445,359818,12.79729,-5.05023,10,
638524991349921196,359829,12.7736,-5.100029,10,
638524991350036360,359840,12.74951,-5.150679,10,
638524991350146353,359851,12.72581,-5.200492,10,
638524991350256366,359862,12.70207,-5.250404,10,
638524991350366352,359873,12.67811,-5.300774,10,
638524991350476350,359885,12.65424,-5.35096,10,
638524991350584823,359895,12.63051,-5.400856,10,
638524991350704703,359907,12.60654,-5.451246,10,
638524991350814723,359918,12.58264,-5.501479,10,
638524991350918959,359929,12.55893,-5.551323,10,
638524991351029056,359940,12.53473,-5.602217,10,
638524991351149055,359951,12.51114,-5.65181,10,
638524991351259061,359962,12.48709,-5.702373,10,
638524991351369060,359973,12.46345,-5.752069,10,
638524991351479053,359985,12.43954,-5.80233,10,
638524991351589068,359996,12.41511,-5.853678,10,
638524991351699045,360007,12.39179,-5.902714,10,
638524991351809048,360018,12.36808,-5.952556,10,
638524991351919164,360029,12.34426,-6.002642,10,
638524991352029147,360040,12.32019,-6.053244,10,
638524991352139150,360051,12.29647,-6.103111,10,
638524991352259145,360062,12.27269,-6.153099,10,
638524991352369148,360073,12.24877,-6.203388,10,
638524991352479155,360084,12.22519,-6.252965,10,
638524991352589148,360095,12.20101,-6.303787,10,
638524991352699152,360107,12.17714,-6.353977,10,
638524991352809150,360118,12.15322,-6.404253,10,
638524991352919248,360129,12.12964,-6.453835,10,
638524991353029243,360140,12.10576,-6.504035,10,
638524991353137946,360151,12.08181,-6.554398,10,
638524991353257959,360162,12.05815,-6.604122,10,
638524991353367943,360173,12.03417,-6.654549,10,
638524991353477947,360184,12.01036,-6.704601,10,
638524991353588424,360195,11.98636,-6.755056,10,
638524991353697938,360206,11.96232,-6.805591,10,
638524991353807944,360218,11.93877,-6.855092,10,
638524991353917939,360229,11.91463,-6.905853,10,
638524991354027950,360240,11.89068,-6.956207,10,
638524991354137939,360251,11.86687,-7.006251,10,
638524991354257963,360262,11.84337,-7.05567,10,
638524991354367942,360273,11.81933,-7.106205,10,
638524991354477947,360284,11.7955,-7.156296,10,
638524991354587940,360295,11.77146,-7.206844,10,
638524991354697957,360306,11.74761,-7.256983,10,
638524991354807945,360318,11.72408,-7.306446,10,
638524991354918089,360329,11.69998,-7.357106,10,
638524991355036564,360340,11.67593,-7.40767,10,
638524991355146557,360351,11.65225,-7.457449,10,
638524991355256562,360362,11.62844,-7.507504,10,
638524991355366553,360373,11.60471,-7.557404,10,
638524991355476559,360384,11.58092,-7.607416,10,
638524991355586561,360395,11.5571,-7.657484,10,
638524991355696567,360406,11.53288,-7.708416,10,
638524991355806568,360417,11.50925,-7.75808,10,
638524991355916652,360429,11.48548,-7.80806,10,
638524991356036747,360440,11.46153,-7.858414,10,
638524991356136745,360451,11.43734,-7.909264,10,
638524991356256874,360462,11.41384,-7.95866,10,
638524991356366858,360473,11.39007,-8.008633,10,
638524991356476863,360484,11.36615,-8.058928,10,
638524991356586872,360495,11.34227,-8.109125,10,
638524991356696859,360506,11.31837,-8.159366,10,
638524991356806861,360517,11.29465,-8.209227,10,
638524991356916971,360529,11.27089,-8.259197,10,
638524991357026964,360540,11.24681,-8.309805,10,
638524991357136968,360551,11.22302,-8.359831,10,
638524991357256972,360562,11.19913,-8.410055,10,
638524991357366962,360573,11.17541,-8.459916,10,
638524991357476972,360584,11.1515,-8.510189,10,
638524991357586968,360595,11.12772,-8.560173,10,
638524991357696980,360606,11.10387,-8.61032,10,
638524991357806981,360618,11.0798,-8.660916,10,
638524991357917072,360629,11.05584,-8.711298,10,
