time(100ns),time_stamp(ms),object1.x,object1.y,object1.z,object2.x,object2.y,object2.z,object3.x,object3.y,object3.z,
638524921586699674,182522,-2.272476,-2.26947,20,4.762872,-6.773351,20,3.473947,-24.88487,20,
638524921586879674,182540,-2.266691,-2.263693,19.94909,4.750747,-6.756108,19.94909,3.465103,-24.82152,19.94909,
638524921586949679,182546,-2.260472,-2.257482,19.89435,4.737712,-6.737572,19.89435,3.455596,-24.75342,19.89435,
638524921587049680,182557,-2.258026,-2.255039,19.87282,4.732585,-6.73028,19.87282,3.451856,-24.72664,19.87282,
638524921587159672,182568,-2.254531,-2.251548,19.84206,4.72526,-6.719862,19.84206,3.446513,-24.68836,19.84206,
638524921587269681,182579,-2.250839,-2.247861,19.80957,4.717522,-6.708859,19.80957,3.44087,-24.64794,19.80957,
638524921587379673,182590,-2.247057,-2.244084,19.77628,4.709594,-6.697585,19.77628,3.435087,-24.60651,19.77628,
638524921587499682,182601,-2.24326,-2.240292,19.74286,4.701636,-6.686267,19.74286,3.429282,-24.56493,19.74286,
638524921587609677,182612,-2.239436,-2.236473,19.70921,4.693622,-6.67487,19.70921,3.423437,-24.52306,19.70921,
638524921587719682,182623,-2.235715,-2.232758,19.67646,4.685824,-6.663781,19.67646,3.41775,-24.48232,19.67646,
638524921587829683,182635,-2.231934,-2.228981,19.64318,4.677897,-6.652509,19.64318,3.411968,-24.44091,19.64318,
638524921587939672,182646,-2.228105,-2.225157,19.60948,4.669873,-6.641097,19.60948,3.406115,-24.39898,19.60948,
638524921588049678,182657,-2.224349,-2.221406,19.57642,4.662,-6.6299,19.57642,3.400373,-24.35785,19.57642,
638524921588159682,182668,-2.22054,-2.217602,19.54291,4.654018,-6.61855,19.54291,3.394551,-24.31614,19.54291,
638524921588269681,182679,-2.216772,-2.213839,19.50974,4.64612,-6.607318,19.50974,3.388791,-24.27488,19.50974,
638524921588429678,182694,-2.212932,-2.210004,19.47594,4.638072,-6.595872,19.47594,3.38292,-24.23283,19.47594,
638524921588489683,182701,-2.207783,-2.204863,19.43063,4.627281,-6.580527,19.43063,3.37505,-24.17645,19.43063,
638524921588609678,182712,-2.205481,-2.202564,19.41037,4.622456,-6.573665,19.41037,3.37153,-24.15124,19.41037,
638524921588719679,182723,-2.201612,-2.1987,19.37632,4.614347,-6.562134,19.37632,3.365616,-24.10888,19.37632,
638524921588829684,182735,-2.197845,-2.194937,19.34316,4.606451,-6.550903,19.34316,3.359856,-24.06762,19.34316,
638524921588939807,182746,-2.194041,-2.191139,19.30968,4.598478,-6.539566,19.30968,3.354041,-24.02596,19.30968,
638524921589049804,182757,-2.190222,-2.187324,19.27607,4.590474,-6.528182,19.27607,3.348203,-23.98414,19.27607,
638524921589159800,182768,-2.186487,-2.183594,19.2432,4.582645,-6.517049,19.2432,3.342493,-23.94324,19.2432,
638524921589269798,182779,-2.182685,-2.179798,19.20974,4.574677,-6.505718,19.20974,3.336682,-23.90161,19.20974,
638524921589379796,182790,-2.178898,-2.176015,19.17641,4.56674,-6.49443,19.17641,3.330892,-23.86014,19.17641,
638524921589499797,182801,-2.175137,-2.172259,19.14331,4.558856,-6.48322,19.14331,3.325143,-23.81895,19.14331,
638524921589609803,182812,-2.171271,-2.168399,19.10929,4.550755,-6.471698,19.10929,3.319233,-23.77662,19.10929,
638524921589719795,182823,-2.167551,-2.164683,19.07654,4.542957,-6.460608,19.07654,3.313546,-23.73588,19.07654,
638524921589829804,182834,-2.163761,-2.160898,19.04319,4.535014,-6.449313,19.04319,3.307752,-23.69438,19.04319,
638524921589979931,182850,-2.159973,-2.157115,19.00985,4.527074,-6.438022,19.00985,3.301962,-23.6529,19.00985,
638524921590049929,182856,-2.154833,-2.151982,18.96462,4.516302,-6.422702,18.96462,3.294104,-23.59661,18.96462,
638524921590159919,182868,-2.152446,-2.149598,18.9436,4.511297,-6.415586,18.9436,3.290454,-23.57047,18.9436,
638524921590269916,182879,-2.148631,-2.145788,18.91003,4.503303,-6.404216,18.91003,3.284623,-23.5287,18.91003,
638524921590379917,182890,-2.144774,-2.141936,18.87609,4.495218,-6.392719,18.87609,3.278727,-23.48646,18.87609,
638524921590499937,182901,-2.140984,-2.138151,18.84273,4.487274,-6.381422,18.84273,3.272932,-23.44495,18.84273,
638524921590609919,182913,-2.137149,-2.134321,18.80898,4.479236,-6.369991,18.80898,3.26707,-23.40296,18.80898,
638524921590719931,182924,-2.1333,-2.130477,18.7751,4.471169,-6.35852,18.7751,3.261186,-23.36081,18.7751,
638524921590839931,182936,-2.129401,-2.126584,18.74079,4.462998,-6.346899,18.74079,3.255226,-23.31812,18.74079,
638524921590949926,182947,-2.125539,-2.122727,18.7068,4.454904,-6.335387,18.7068,3.249322,-23.27583,18.7068,
638524921591059916,182958,-2.121716,-2.118908,18.67315,4.44689,-6.323991,18.67315,3.243477,-23.23396,18.67315,
638524921591179924,182969,-2.117877,-2.115075,18.63936,4.438844,-6.312549,18.63936,3.237608,-23.19192,18.63936,
638524921591289925,182980,-2.113995,-2.111199,18.6052,4.43071,-6.300981,18.6052,3.231675,-23.14942,18.6052,
638524921591399922,182991,-2.11023,-2.107438,18.57206,4.422817,-6.289757,18.57206,3.225919,-23.10818,18.57206,
638524921591559909,183007,-2.106477,-2.10369,18.53903,4.414951,-6.278571,18.53903,3.220181,-23.06709,18.53903,
638524921591609922,183013,-2.101043,-2.098263,18.49121,4.403562,-6.262373,18.49121,3.211874,-23.00758,18.49121,
638524921591719916,183024,-2.098969,-2.096192,18.47295,4.399215,-6.256192,18.47295,3.208704,-22.98487,18.47295,
638524921591839915,183035,-2.095361,-2.092589,18.4412,4.391654,-6.245439,18.4412,3.203189,-22.94536,18.4412,
638524921591945112,183046,-2.091517,-2.08875,18.40737,4.383596,-6.233981,18.40737,3.197312,-22.90327,18.40737,
638524921592055116,183057,-2.087783,-2.085021,18.37451,4.375771,-6.222852,18.37451,3.191604,-22.86238,18.37451,
638524921592165121,183068,-2.084009,-2.081253,18.3413,4.367861,-6.211604,18.3413,3.185835,-22.82105,18.3413,
638524921592275114,183080,-2.080209,-2.077458,18.30786,4.359898,-6.200278,18.30786,3.180027,-22.77945,18.30786,
638524921592385110,183091,-7.795989,31.51613,20,4.351925,-6.18894,18.27438,3.174212,-22.73779,18.27438,
638524921592505127,183102,-7.783118,31.4641,19.96698,4.344062,-6.177758,18.24136,3.168476,-22.69671,18.24136,
638524921592615116,183113,-7.770108,31.4115,19.93361,4.336113,-6.166454,18.20798,3.162679,-22.65518,18.20798,
638524921592725119,183124,-7.757088,31.35887,19.9002,4.328159,-6.155142,18.17458,3.156877,-22.61362,18.17458,
638524921592835111,183135,-7.744154,31.30658,19.86702,4.320257,-6.143905,18.1414,3.151114,-22.57233,18.1414,
638524921592945210,183146,-7.731155,31.25403,19.83367,4.312315,-6.132611,18.10805,3.145321,-22.53084,18.10805,
638524921593105209,183162,-7.718039,31.20101,19.80003,4.304302,-6.121215,18.0744,3.139477,-22.48897,18.0744,
638524921593165217,183168,-7.699789,31.12723,19.75321,4.293152,-6.105359,18.02758,3.131344,-22.43072,18.02758,
638524921593285216,183180,-7.692323,31.09705,19.73405,4.288591,-6.098873,18.00843,3.128018,-22.40689,18.00843,
638524921593390757,183191,-7.678971,31.04307,19.6998,4.280434,-6.087272,17.97418,3.122068,-22.36427,17.97418,
638524921593500770,183202,-7.666108,30.99107,19.6668,4.272575,-6.076096,17.94118,3.116336,-22.32321,17.94118,
638524921593610772,183213,-7.653196,30.93887,19.63367,4.264687,-6.064878,17.90805,3.110582,-22.28199,17.90805,
638524921593720752,183224,-7.639982,30.88545,19.59978,4.256614,-6.053397,17.87415,3.104694,-22.23981,17.87415,
638524921593830766,183235,-7.627259,30.83401,19.56713,4.248841,-6.042343,17.84151,3.099024,-22.1992,17.84151,
638524921593940872,183246,-7.614234,30.78136,19.53372,4.240884,-6.031027,17.8081,3.09322,-22.15762,17.8081,
638524921594060867,183257,-7.601295,30.72905,19.50053,4.232979,-6.019785,17.7749,3.087455,-22.11632,17.7749,
638524921594170864,183268,-7.588129,30.67583,19.46675,4.224935,-6.008346,17.74113,3.081588,-22.0743,17.74113,
638524921594280862,183280,-7.575269,30.62384,19.43376,4.217079,-5.997173,17.70814,3.075857,-22.03325,17.70814,
638524921594390868,183291,-7.562246,30.57119,19.40035,4.209122,-5.985858,17.67472,3.070054,-21.99168,17.67472,
638524921594500871,183302,-7.549283,30.51879,19.36709,4.201203,-5.974596,17.64147,3.064278,-21.9503,17.64147,
638524921594650985,183317,-7.536209,30.46594,19.33355,4.193215,-5.963237,17.60793,3.058452,-21.90857,17.60793,
638524921594720976,183323,-7.518692,30.39512,19.28862,4.182514,-5.948018,17.56299,3.050647,-21.85266,17.56299,
638524921594830978,183335,-7.510488,30.36196,19.26757,4.177502,-5.94089,17.54194,3.04699,-21.82647,17.54194,
638524921594946317,183346,-7.497364,30.3089,19.2339,4.169484,-5.929487,17.50828,3.041142,-21.78457,17.50828,
638524921595056293,183357,-7.48438,30.25641,19.20059,4.161551,-5.918207,17.47497,3.035357,-21.74313,17.47497,
638524921595166297,183369,-7.471428,30.20405,19.16736,4.153639,-5.906954,17.44174,3.029585,-21.70179,17.44174,
638524921595276302,183380,-7.458181,30.1505,19.13338,4.145545,-5.895444,17.40775,3.023682,-21.6595,17.40775,
638524921595386298,183391,-7.445116,30.09768,19.09986,4.137564,-5.884093,17.37424,3.01786,-21.6178,17.37424,
638524921595506306,183402,-7.432172,30.04535,19.06666,4.129656,-5.872847,17.34103,3.012092,-21.57648,17.34103,
638524921595616302,183413,-7.419135,29.99265,19.03321,4.121691,-5.86152,17.30759,3.006283,-21.53487,17.30759,
638524921595726296,183424,-7.406208,29.9404,19.00005,4.113794,-5.850288,17.27442,3.000523,-21.4936,17.27442,
638524921595836305,183435,-7.393248,29.888,18.9668,4.105876,-5.839028,17.24117,2.994748,-21.45223,17.24117,
638524921595946402,183446,-7.380113,29.8349,18.9331,4.097852,-5.827617,17.20748,2.988895,-21.41031,17.20748,
638524921596056400,183457,-7.36721,29.78274,18.9,4.089969,-5.816406,17.17438,2.983145,-21.36912,17.17438,
638524921596216404,183473,-7.354218,29.73022,18.86667,4.082031,-5.805119,17.14105,2.977356,-21.32765,17.14105,
638524921596276404,183479,-7.33629,29.65775,18.82068,4.071078,-5.789542,17.09505,2.969367,-21.27042,17.09505,
638524921596386400,183491,-7.328377,29.62576,18.80038,4.066244,-5.782667,17.07475,2.965841,-21.24517,17.07475,
638524921596496413,183502,-7.315277,29.5728,18.76677,4.05824,-5.771285,17.04115,2.960003,-21.20335,17.04115,
638524921596616404,183513,-7.302343,29.52051,18.73359,4.050339,-5.760048,17.00797,2.95424,-21.16207,17.00797,
638524921596726401,183524,-7.289258,29.46761,18.70002,4.042345,-5.748679,16.9744,2.948409,-21.1203,16.9744,
638524921596836399,183536,-7.275955,29.41384,18.66589,4.034218,-5.737122,16.94027,2.942481,-21.07784,16.94027,
638524921596956545,183547,-7.262896,29.36104,18.63239,4.026239,-5.725775,16.90676,2.936662,-21.03615,16.90676,
638524921597066534,183558,-7.249496,29.30687,18.59801,4.018052,-5.714133,16.87239,2.930691,-20.99338,16.87239,
638524921597176535,183569,-7.236224,29.25322,18.56397,4.009944,-5.702602,16.83834,2.924777,-20.95101,16.83834,
638524921597286553,183580,-7.22369,29.20255,18.53181,4.002286,-5.691712,16.80619,2.919191,-20.911,16.80619,
638524921597396533,183591,-7.210474,29.14912,18.49791,3.994212,-5.68023,16.77228,2.913302,-20.86882,16.77228,
638524921597506538,183603,-7.197689,29.09744,18.46511,3.986402,-5.669122,16.73948,2.907605,-20.82801,16.73948,
638524921597616535,183613,-7.184471,29.044,18.4312,3.978326,-5.657638,16.70558,2.901716,-20.78582,16.70558,
638524921597776530,183629,-7.171714,28.99243,18.39847,3.970533,-5.646554,16.67285,2.896031,-20.7451,16.67285,
638524921597836539,183636,-7.153558,28.91903,18.35189,3.95944,-5.630779,16.62627,2.88794,-20.68714,16.62627,
638524921597946538,183647,-7.145547,28.88665,18.33134,3.954546,-5.623819,16.60572,2.884371,-20.66157,16.60572,
638524921598056534,183658,-7.133084,28.83627,18.29937,3.946932,-5.612991,16.57375,2.878817,-20.62179,16.57375,
638524921598166549,183669,-7.120065,28.78364,18.26597,3.938978,-5.601679,16.54035,2.873016,-20.58023,16.54035,
638524921598276530,183680,-7.107093,28.73119,18.23269,3.931052,-5.590408,16.50707,2.867235,-20.53882,16.50707,
638524921598386533,183691,-7.094145,28.67885,18.19948,3.923142,-5.579159,16.47385,2.861465,-20.4975,16.47385,
638524921598506540,183702,-7.081429,28.62744,18.16685,3.915373,-5.56811,16.44123,2.855799,-20.4569,16.44123,
638524921598616528,183713,-7.068258,28.5742,18.13306,3.907327,-5.556668,16.40744,2.84993,-20.41486,16.40744,
638524921598726535,183724,-7.055377,28.52213,18.10002,3.899457,-5.545476,16.37439,2.84419,-20.37375,16.37439,
638524921598836533,183735,-7.042439,28.46982,18.06682,3.891552,-5.534235,16.3412,2.838424,-20.33245,16.3412,
638524921598946644,183746,-7.029435,28.41725,18.03346,3.883608,-5.522937,16.30784,2.83263,-20.29094,16.30784,
638524921599056631,183757,-7.016335,28.36429,17.99986,3.875604,-5.511555,16.27423,2.826792,-20.24912,16.27423,
638524921599166647,183769,-7.003446,28.31219,17.96679,3.86773,-5.500357,16.24117,2.821049,-20.20798,16.24117,
638524921599336635,183785,-6.990215,28.2587,17.93285,3.859647,-5.488863,16.20723,2.815153,-20.16575,16.20723,
638524921599386637,183791,-6.971113,28.18148,17.88384,3.847977,-5.472266,16.15822,2.806641,-20.10478,16.15822,
638524921599496634,183801,-6.964194,28.15351,17.86609,3.843749,-5.466254,16.14047,2.803558,-20.08269,16.14047,
638524921599606633,183812,-6.952518,28.10631,17.83614,3.836616,-5.45611,16.11052,2.798355,-20.04542,16.11052,
638524921599716642,183823,-6.939482,28.05361,17.8027,3.828652,-5.444784,16.07707,2.792546,-20.00381,16.07707,
638524921599826638,183834,-6.926466,28.00099,17.7693,3.8207,-5.433475,16.04368,2.786746,-19.96226,16.04368,
638524921599936745,183845,-6.913592,27.94894,17.73628,3.812835,-5.42229,16.01065,2.781009,-19.92117,16.01065,
638524921600046752,183857,-6.900546,27.8962,17.70281,26.32359,32.78744,20,2.775196,-19.87952,15.97719,
638524921600156754,183868,-6.88729,27.84262,17.6688,26.27883,32.73169,19.96599,2.769289,-19.83721,15.94318,
638524921600266746,183879,-6.87439,27.79046,17.63571,26.23527,32.67743,19.9329,2.76354,-19.79603,15.91008,
638524921600386741,183890,-6.861404,27.73797,17.60239,26.19142,32.62282,19.89958,2.757754,-19.75458,15.87677,
638524921600496744,183901,-6.848299,27.68499,17.56877,26.14717,32.5677,19.86596,2.751914,-19.71275,15.84315,
638524921600606751,183912,-6.835496,27.63323,17.53593,26.10394,32.51386,19.83312,2.746209,-19.67188,15.81031,
638524921600716737,183923,-6.822377,27.5802,17.50227,26.05964,32.45869,19.79946,2.740363,-19.63001,15.77665,
638524921600876751,183940,-6.809381,27.52766,17.46893,26.01576,32.40403,19.76612,2.734572,-19.58852,15.74331,
638524921600936748,183945,-6.790717,27.45221,17.42105,25.95274,32.32554,19.71824,2.726255,-19.52895,15.69543,
638524921601046743,183956,-6.783545,27.42321,17.40265,25.92853,32.29538,19.69984,2.723059,-19.50605,15.67703,
638524921601156752,183968,-6.770767,27.37156,17.36987,25.88538,32.24163,19.66706,2.717365,-19.46527,15.64425,
638524921601266751,183979,-6.757561,27.31817,17.33599,25.84079,32.1861,19.63318,2.711481,-19.42311,15.61037,
638524921601376743,183990,-6.744498,27.26536,17.30248,25.79668,32.13116,19.59967,2.70566,-19.38142,15.57686,
638524921601496754,184001,-6.731628,27.21333,17.26946,25.75323,32.07703,19.56665,2.699925,-19.34033,15.54384,
638524921601606739,184012,-6.718677,27.16098,17.23624,25.7095,32.02256,19.53343,2.694154,-19.29899,15.51061,
638524921601716738,184023,-6.705739,27.10868,17.20304,25.66581,31.96815,19.50024,2.688388,-19.25769,15.47742,
638524921601826738,184034,-6.692842,27.05654,17.16996,25.62226,31.91391,19.46715,2.682641,-19.21653,15.44434,
638524921601936845,184045,-6.679768,27.00368,17.13642,25.57812,31.85892,19.43361,2.676815,-19.1748,15.4108,
638524921602046851,184056,-6.666677,26.95076,17.10283,25.53392,31.80387,19.40003,2.670982,-19.13301,15.37721,
638524921602192383,184071,-6.653836,26.89885,17.06989,25.49056,31.74986,19.36708,2.66526,-19.09202,15.34427,
638524921602302388,184082,-6.637253,26.83181,17.02735,25.43456,31.68012,19.32454,2.657871,-19.03909,15.30173,
638524921602492381,184101,-6.624393,26.77982,16.99436,25.39114,31.62603,19.29155,2.65214,-18.99804,15.26873,
638524921602592391,184111,-6.601712,26.68814,16.93617,25.31456,31.53065,19.23337,2.642033,-18.92564,15.21055,
638524921602752390,184127,-6.589591,26.63913,16.90508,25.27363,31.47967,19.20227,2.636632,-18.88695,15.17945,
638524921602812380,184133,-6.571485,26.56594,16.85863,25.21249,31.40352,19.15582,2.628563,-18.82915,15.133,
638524921602918623,184144,-6.563649,26.53426,16.83852,25.18604,31.37056,19.13572,2.625072,-18.80414,15.1129,
638524921603028464,184155,-6.551767,26.48623,16.80804,25.14591,31.32059,19.10523,2.619777,-18.76621,15.08242,
638524921603138466,184166,-6.539049,26.43481,16.77541,25.10297,31.2671,19.07261,2.614109,-18.72562,15.04979,
638524921603248461,184177,-6.526103,26.38247,16.7422,25.05926,31.21265,19.03939,2.608341,-18.6843,15.01658,
638524921603358464,184188,-6.512967,26.32937,16.7085,25.0149,31.15741,19.00569,2.602487,-18.64237,14.98288,
638524921603468461,184199,-6.50007,26.27724,16.67542,24.97136,31.10317,18.97261,2.59674,-18.6012,14.94979,
638524921603588472,184210,-6.487129,26.22492,16.64222,24.92766,31.04874,18.93941,2.590974,-18.55989,14.9166,
638524921603698475,184221,-6.473676,26.17054,16.6077,24.88224,30.99216,18.9049,2.584979,-18.51695,14.88208,
638524921603808462,184232,-6.460979,26.11921,16.57513,24.83937,30.93876,18.87232,2.579321,-18.47642,14.84951,
638524921603958478,184247,-6.448028,26.06685,16.5419,24.79563,30.88429,18.8391,2.57355,-18.43508,14.81628,
638524921604028484,184254,-6.430505,25.99601,16.49695,24.73647,30.8106,18.79414,2.565741,-18.37915,14.77133,
638524921604138465,184266,-6.422276,25.96274,16.47584,24.70868,30.77598,18.77303,2.562074,-18.35288,14.75022,
638524921604248460,184277,-6.409112,25.90953,16.44207,24.66423,30.72062,18.73926,2.556208,-18.31086,14.71645,
638524921604358464,184288,-6.39597,25.8564,16.40835,24.61986,30.66535,18.70554,2.550352,-18.26891,14.68273,
638524921604468466,184299,-6.383137,25.80452,16.37543,24.57652,30.61138,18.67262,2.544633,-18.22795,14.64981,
638524921604588462,184310,-6.370263,25.75247,16.3424,24.53305,30.55724,18.6396,-5.501407,21.38751,20,
638524921604688466,184321,-6.356806,25.69807,16.30788,24.48762,30.50064,18.60507,-5.491911,21.35059,19.96548,
638524921604808469,184332,-6.344269,25.64739,16.27572,24.44529,30.44792,18.57291,-5.483064,21.3162,19.93332,
638524921604918461,184344,-6.331271,25.59485,16.24237,24.4014,30.39325,18.53957,-5.473892,21.28054,19.89997,
638524921605028471,184354,-6.317972,25.54108,16.20826,24.35649,30.33732,18.50545,-5.464507,21.24405,19.86585,
638524921605138462,184366,-6.305357,25.49009,16.17589,24.3139,30.28427,18.47309,-5.455605,21.20945,19.83349,
638524921605248474,184377,-6.292265,25.43716,16.14231,24.26969,30.22921,18.4395,-5.446367,21.17353,19.79991,
638524921605358470,184388,-6.27932,25.38483,16.1091,24.22598,30.17476,18.40629,-5.437231,21.13802,19.7667,
638524921605518480,184403,-6.266178,25.3317,16.07538,24.18161,30.11949,18.37258,-5.427957,21.10196,19.73298,
638524921605578478,184410,-6.248105,25.25864,16.02902,24.12058,30.04348,18.32621,-5.415204,21.05238,19.68661,
638524921605688463,184421,-6.24026,25.22693,16.00889,24.0941,30.01049,18.30609,-5.409668,21.03086,19.66649,
638524921605808465,184432,-6.227387,25.17489,15.97587,24.05063,29.95635,18.27306,-5.400584,20.99555,19.63346,
638524921605919035,184443,-6.214378,25.1223,15.9425,24.0067,29.90164,18.23969,-5.391404,20.95986,19.60009,
638524921606028476,184454,-6.201271,25.06931,15.90887,23.96245,29.84652,18.20606,-5.382154,20.9239,19.56647,
638524921606138462,184466,-6.188435,25.01742,15.87594,23.91911,29.79253,18.17313,-5.373096,20.88869,19.53354,
638524921606248472,184477,-6.17544,24.96489,15.8426,23.87523,29.73788,18.1398,-5.363926,20.85304,19.5002,
638524921606358455,184488,-6.162282,24.91169,15.80885,23.8308,29.68254,18.10604,-5.354641,20.81694,19.46644,
638524921606468460,184499,-6.149348,24.85941,15.77567,23.78712,29.62815,18.07286,-5.345514,20.78146,19.43326,
638524921606588462,184510,-6.136396,24.80704,15.74244,23.74339,29.57368,18.03963,-5.336374,20.74592,19.40004,
638524921606698484,184522,-6.123044,24.75307,15.70818,23.69831,29.51752,18.00538,-5.326952,20.70929,19.36578,
638524921606808461,184533,-6.109708,24.69916,15.67397,23.65328,29.46144,17.97117,-5.317541,20.67271,19.33157,
