time(100ns),time_stamp(ms),object1.x,object1.y,object1.z,
638524994426462414,667483,13.83971,10.75003,10,
638524994426532415,667490,13.83971,10.75003,10,
638524994426632407,667500,13.83971,10.75003,10,
638524994426742405,667511,13.83971,10.75003,10,
638524994426852412,667522,13.83971,10.75003,10,
638524994426972416,667534,13.83971,10.75003,10,
638524994427072408,667544,13.83971,10.75003,10,
638524994427182412,667555,13.83971,10.75003,10,
638524994427292416,667566,13.83971,10.75003,10,
638524994427412414,667578,13.83971,10.75003,10,
638524994427522410,667589,13.83971,10.75003,10,
638524994427632409,667600,13.83971,10.75003,10,
638524994427742405,667611,13.83971,10.75003,10,
638524994427852410,667622,13.83971,10.75003,10,
638524994427962417,667633,13.83971,10.75003,10,
638524994428072411,667644,13.83971,10.75003,10,
638524994428192415,667655,13.83971,10.75003,10,
638524994428292410,667666,13.83971,10.75003,10,
638524994428412418,667677,13.83971,10.75003,10,
638524994428522415,667689,13.83971,10.75003,10,
638524994428632419,667700,13.83971,10.75003,10,
638524994428742400,667711,13.83971,10.75003,10,
638524994428852408,667722,13.83971,10.75003,10,
638524994428962407,667733,13.83971,10.75003,10,
638524994429072419,667744,13.83971,10.75003,10,
638524994429182405,667755,13.83971,10.75003,10,
638524994429292407,667766,13.83971,10.75003,10,
638524994429412407,667777,13.83971,10.75003,10,
638524994429522408,667789,13.83971,10.75003,10,
638524994429632417,667800,13.83971,10.75003,10,
638524994429742415,667811,13.83971,10.75003,10,
638524994429852411,667822,13.83971,10.75003,10,
638524994429962428,667833,13.83971,10.75003,10,
638524994430072422,667844,13.83971,10.75003,10,
638524994430192420,667855,13.83971,10.75003,10,
638524994430302416,667867,13.83971,10.75003,10,
638524994430412424,667878,13.83971,10.75003,10,
638524994430522407,667889,13.83971,10.75003,10,
638524994430642419,667900,13.83971,10.75003,10,
638524994430752413,667912,13.83971,10.75003,10,
638524994430862416,667923,13.83971,10.75003,10,
638524994430972408,667934,13.83971,10.75003,10,
638524994431082405,667945,13.83971,10.75003,10,
638524994431202424,667957,13.83971,10.75003,10,
638524994431312417,667968,13.83971,10.75003,10,
638524994431422412,667979,13.83971,10.75003,10,
638524994431532415,667990,13.83971,10.75003,10,
638524994431642403,668001,13.83971,10.75003,10,
638524994431752406,668012,13.83971,10.75003,10,
638524994431862407,668023,13.83971,10.75003,10,
638524994431982415,668034,13.83971,10.75003,10,
638524994432092420,668046,13.83971,10.75003,10,
638524994432202414,668057,13.83971,10.75003,10,
638524994432312416,668068,13.83971,10.75003,10,
638524994432422416,668079,13.83971,10.75003,10,
638524994432532425,668090,13.83971,10.75003,10,
638524994432642409,668101,13.83971,10.75003,10,
638524994432752411,668112,13.83971,10.75003,10,
638524994432862414,668123,13.83971,10.75003,10,
638524994432982410,668134,13.83971,10.75003,10,
638524994433092416,668146,13.83971,10.75003,10,
638524994433202430,668157,13.83971,10.75003,10,
638524994433312404,668168,13.83971,10.75003,10,
638524994433422412,668179,13.83971,10.75003,10,
638524994433532424,668190,13.83971,10.75003,10,
638524994433642404,668201,13.83971,10.75003,10,
638524994433752419,668212,13.83971,10.75003,10,
638524994433872429,668223,13.83971,10.75003,10,
638524994433972407,668234,13.83971,10.75003,10,
638524994434092419,668246,13.83971,10.75003,10,
638524994434202422,668257,13.83971,10.75003,10,
638524994434312408,668268,13.83971,10.75003,10,
638524994434422417,668279,13.83971,10.75003,10,
638524994434532419,668290,13.83971,10.75003,10,
638524994434642408,668301,13.83971,10.75003,10,
638524994434752425,668312,13.83971,10.75003,10,
638524994434862415,668323,13.83971,10.75003,10,
638524994434972421,668334,13.83971,10.75003,10,
638524994435082406,668345,13.83971,10.75003,10,
638524994435202428,668356,13.83971,10.75003,10,
638524994435312420,668368,13.83971,10.75003,10,
638524994435422417,668379,13.83971,10.75003,10,
638524994435532416,668390,13.83971,10.75003,10,
638524994435642414,668401,13.83971,10.75003,10,
638524994435752412,668412,13.83971,10.75003,10,
638524994435872429,668423,13.83971,10.75003,10,
638524994435972413,668434,13.83971,10.75003,10,
638524994436082416,668445,13.83971,10.75003,10,
638524994436202419,668457,13.83971,10.75003,10,
638524994436312418,668468,13.83971,10.75003,10,
638524994436422416,668479,13.83971,10.75003,10,
638524994436532407,668490,13.83971,10.75003,10,
638524994436642416,668501,13.83971,10.75003,10,
638524994436752409,668512,13.83971,10.75003,10,
638524994436862416,668523,13.83971,10.75003,10,
638524994436972408,668534,13.83971,10.75003,10,
638524994437082404,668545,13.83971,10.75003,10,
638524994437202420,668557,13.83971,10.75003,10,
638524994437312423,668568,13.83971,10.75003,10,
638524994437422409,668579,13.83971,10.75003,10,
638524994437532426,668590,13.83971,10.75003,10,
638524994437642415,668601,13.83971,10.75003,10,
638524994437752415,668612,13.83971,10.75003,10,
638524994437862410,668623,13.83971,10.75003,10,
638524994437972419,668634,13.83971,10.75003,10,
638524994438082405,668645,13.83971,10.75003,10,
638524994438202418,668656,13.83971,10.75003,10,
638524994438312419,668668,13.83971,10.75003,10,
638524994438422418,668679,13.83971,10.75003,10,
638524994438532418,668690,13.83971,10.75003,10,
638524994438642423,668701,13.83971,10.75003,10,
638524994438752435,668712,13.83971,10.75003,10,
638524994438862410,668723,13.83971,10.75003,10,
638524994438972407,668734,13.83971,10.75003,10,
638524994439092418,668746,13.83971,10.75003,10,
638524994439192425,668756,13.83971,10.75003,10,
638524994439312410,668768,13.83971,10.75003,10,
638524994439422409,668779,13.83971,10.75003,10,
638524994439532419,668790,13.83971,10.75003,10,
638524994439642415,668801,13.83971,10.75003,10,
638524994439752420,668812,13.83971,10.75003,10,
638524994439862417,668823,13.83971,10.75003,10,
638524994439972415,668834,13.83971,10.75003,10,
638524994440082407,668845,13.83971,10.75003,10,
638524994440202432,668857,13.83971,10.75003,10,
638524994440312410,668867,13.83971,10.75003,10,
638524994440422404,668879,13.83971,10.75003,10,
638524994440532416,668890,13.83971,10.75003,10,
638524994440642414,668901,13.83971,10.75003,10,
638524994440752430,668912,13.83971,10.75003,10,
638524994440862419,668923,13.83971,10.75003,10,
638524994440972422,668934,13.83971,10.75003,10,
638524994441082414,668945,13.83971,10.75003,10,
638524994441202430,668957,13.83971,10.75003,10,
638524994441312422,668968,13.83971,10.75003,10,
638524994441422417,668979,13.83971,10.75003,10,
638524994441532407,668990,13.83971,10.75003,10,
638524994441642406,669001,13.83971,10.75003,10,
638524994441752428,669012,13.83971,10.75003,10,
638524994441862411,669023,13.83971,10.75003,10,
638524994441972416,669034,13.83971,10.75003,10,
638524994442082420,669045,13.83971,10.75003,10,
638524994442192425,669056,13.83971,10.75003,10,
638524994442302403,669067,13.83971,10.75003,10,
638524994442422412,669079,13.83971,10.75003,10,
638524994442532419,669090,13.83971,10.75003,10,
638524994442642417,669101,13.83971,10.75003,10,
638524994442752430,669112,13.83971,10.75003,10,
638524994442862410,669123,13.83971,10.75003,10,
638524994442972425,669134,13.83971,10.75003,10,
638524994443082423,669145,13.83971,10.75003,10,
638524994443202423,669156,13.83971,10.75003,10,
638524994443302426,669167,13.83971,10.75003,10,
638524994443422416,669179,13.83971,10.75003,10,
638524994443532420,669190,13.83971,10.75003,10,
638524994443642416,669201,13.83971,10.75003,10,
638524994443752410,669212,13.83971,10.75003,10,
638524994443862422,669223,13.83971,10.75003,10,
638524994443972438,669234,13.83971,10.75003,10,
638524994444082416,669245,13.83971,10.75003,10,
638524994444202445,669257,13.83971,10.75003,10,
638524994444302416,669267,13.83971,10.75003,10,
638524994444422399,669279,13.83971,10.75003,10,
638524994444522414,669289,13.83971,10.75003,10,
638524994444642415,669301,13.83971,10.75003,10,
638524994444752409,669312,13.83971,10.75003,10,
638524994444862417,669323,13.83971,10.75003,10,
638524994444972415,669334,13.83971,10.75003,10,
638524994445082428,669345,13.83971,10.75003,10,
638524994445192410,669356,13.83971,10.75003,10,
638524994445312419,669368,13.83971,10.75003,10,
638524994445422430,669379,13.83971,10.75003,10,
638524994445522411,669389,13.83971,10.75003,10,
638524994445642411,669400,13.83971,10.75003,10,
638524994445752417,669412,13.83971,10.75003,10,
638524994445862422,669423,13.83971,10.75003,10,
638524994445972418,669434,13.83971,10.75003,10,
638524994446082410,669445,13.83971,10.75003,10,
638524994446192415,669456,13.83971,10.75003,10,
638524994446302408,669467,13.83971,10.75003,10,
638524994446412417,669478,13.83971,10.75003,10,
638524994446532414,669490,13.83971,10.75003,10,
638524994446642410,669500,13.83971,10.75003,10,
638524994446752415,669512,13.83971,10.75003,10,
638524994446862409,669523,13.83971,10.75003,10,
638524994446972417,669534,13.83971,10.75003,10,
638524994447082404,669545,13.83971,10.75003,10,
638524994447192412,669556,13.83971,10.75003,10,
638524994447302416,669567,13.83971,10.75003,10,
638524994447422410,669579,13.83971,10.75003,10,
638524994447532420,669590,13.83971,10.75003,10,
638524994447642418,669601,13.83971,10.75003,10,
638524994447752412,669612,13.83971,10.75003,10,
638524994447862404,669623,13.83971,10.75003,10,
638524994447972420,669634,13.83971,10.75003,10,
638524994448082407,669645,13.83971,10.75003,10,
638524994448192411,669656,13.83971,10.75003,10,
638524994448302408,669667,13.83971,10.75003,10,
638524994448412424,669678,13.83971,10.75003,10,
638524994448522410,669689,13.83971,10.75003,10,
638524994448632412,669700,13.83971,10.75003,10,
638524994448752428,669712,13.83971,10.75003,10,
638524994448862415,669723,13.83971,10.75003,10,
638524994448972418,669734,13.83971,10.75003,10,
638524994449082413,669745,13.83971,10.75003,10,
638524994449192410,669756,13.83971,10.75003,10,
638524994449302413,669767,13.83971,10.75003,10,
638524994449412411,669778,13.83971,10.75003,10,
638524994449522427,669789,13.83971,10.75003,10,
638524994449632420,669800,13.83971,10.75003,10,
638524994449752414,669812,13.83971,10.75003,10,
638524994449862420,669823,13.83971,10.75003,10,
638524994449972413,669834,13.83971,10.75003,10,
638524994450082419,669845,13.83971,10.75003,10,
638524994450192404,669856,13.83971,10.75003,10,
638524994450302420,669867,13.83971,10.75003,10,
638524994450412409,669878,13.83971,10.75003,10,
638524994450532412,669890,13.83971,10.75003,10,
638524994450632412,669900,13.83971,10.75003,10,
638524994450752413,669912,13.83971,10.75003,10,
638524994450862414,669923,13.83971,10.75003,10,
638524994450972414,669934,13.83971,10.75003,10,
638524994451082408,669945,13.83971,10.75003,10,
638524994451192414,669956,13.83971,10.75003,10,
638524994451302417,669967,13.83971,10.75003,10,
638524994451412404,669978,13.83971,10.75003,10,
638524994451562409,669992,13.83971,10.75003,10,
638524994451662404,670003,13.83971,10.75003,10,
638524994451782413,670014,13.83971,10.75003,10,
638524994451942413,670031,13.83971,10.75003,10,
638524994451992407,670036,13.83971,10.75003,10,
638524994452082436,670045,13.83971,10.75003,10,
638524994452182415,670055,13.83971,10.75003,10,
638524994452292410,670066,13.83971,10.75003,10,
638524994452402407,670077,13.83971,10.75003,10,
638524994452512417,670088,13.83971,10.75003,10,
638524994452632410,670099,13.83971,10.75003,10,
638524994452742415,670111,13.83971,10.75003,10,
638524994452852416,670122,13.83971,10.75003,10,
638524994452962406,670133,13.83971,10.75003,10,
638524994453072413,670144,13.83971,10.75003,10,
638524994453182417,670155,13.83971,10.75003,10,
638524994453292421,670166,13.83971,10.75003,10,
638524994453402407,670177,13.83971,10.75003,10,
638524994453522407,670189,13.83971,10.75003,10,
638524994453622403,670199,13.83971,10.75003,10,
638524994453742405,670210,13.83971,10.75003,10,
638524994453852411,670221,13.83971,10.75003,10,
638524994453962420,670233,13.83971,10.75003,10,
638524994454072434,670244,13.83971,10.75003,10,
638524994454182425,670255,13.83971,10.75003,10,
638524994454292406,670266,13.83971,10.75003,10,
638524994454402411,670277,13.83971,10.75003,10,
638524994454512423,670288,13.83971,10.75003,10,
638524994454622425,670299,13.83971,10.75003,10,
638524994454742417,670311,13.83971,10.75003,10,
638524994454852412,670322,13.83971,10.75003,10,
638524994454962416,670333,13.83971,10.75003,10,
638524994455072420,670344,13.83971,10.75003,10,
638524994455182408,670355,13.83971,10.75003,10,
638524994455292417,670366,13.83971,10.75003,10,
638524994455402413,670377,13.83971,10.75003,10,
638524994455512464,670388,13.83971,10.75003,10,
638524994455622423,670399,13.83971,10.75003,10,
638524994455742430,670411,13.83971,10.75003,10,
638524994455852416,670422,13.83971,10.75003,10,
638524994455962413,670433,13.83971,10.75003,10,
638524994456072408,670444,13.83971,10.75003,10,
638524994456192403,670456,13.83971,10.75003,10,
638524994456302407,670467,13.83971,10.75003,10,
638524994456412426,670478,13.83971,10.75003,10,
638524994456522407,670489,13.83971,10.75003,10,
638524994456632421,670500,13.83971,10.75003,10,
638524994456742412,670511,13.83971,10.75003,10,
638524994456862437,670523,13.83971,10.75003,10,
638524994456962420,670533,13.83971,10.75003,10,
638524994457082416,670545,13.83971,10.75003,10,
638524994457192418,670556,13.83971,10.75003,10,
638524994457302420,670567,13.83971,10.75003,10,
638524994457412420,670578,13.83971,10.75003,10,
638524994457522412,670589,13.83971,10.75003,10,
638524994457632420,670600,13.83971,10.75003,10,
638524994457752410,670612,13.83971,10.75003,10,
638524994457862414,670623,13.83971,10.75003,10,
638524994457962405,670633,13.83971,10.75003,10,
638524994458082415,670645,13.83971,10.75003,10,
638524994458192409,670656,13.83971,10.75003,10,
638524994458302415,670667,13.83971,10.75003,10,
638524994458412415,670678,13.83971,10.75003,10,
638524994458522421,670689,13.83971,10.75003,10,
638524994458632411,670700,13.83971,10.75003,10,
638524994458752410,670711,13.83971,10.75003,10,
638524994458852412,670722,13.83971,10.75003,10,
638524994458962426,670733,13.83971,10.75003,10,
638524994459072407,670744,13.83971,10.75003,10,
638524994459192418,670756,13.83971,10.75003,10,
638524994459302418,670767,13.83971,10.75003,10,
638524994459412409,670778,13.83971,10.75003,10,
638524994459522419,670789,13.83971,10.75003,10,
638524994459632418,670800,13.83971,10.75003,10,
638524994459742407,670811,13.83971,10.75003,10,
638524994459852419,670822,13.83971,10.75003,10,
638524994459962425,670833,13.83971,10.75003,10,
638524994460082424,670844,13.83971,10.75003,10,
638524994460192409,670856,13.83971,10.75003,10,
638524994460302419,670867,13.83971,10.75003,10,
638524994460412409,670878,13.83971,10.75003,10,
638524994460522410,670889,13.83971,10.75003,10,
638524994460632420,670900,13.83971,10.75003,10,
638524994460742422,670911,13.83971,10.75003,10,
638524994460852404,670922,13.83971,10.75003,10,
638524994460962417,670933,13.83971,10.75003,10,
638524994461082417,670945,13.83971,10.75003,10,
638524994461182411,670955,13.83971,10.75003,10,
638524994461302412,670967,13.83971,10.75003,10,
638524994461412416,670978,13.83971,10.75003,10,
638524994461522417,670989,13.83971,10.75003,10,
638524994461632416,671000,13.83971,10.75003,10,
638524994461742417,671011,13.83971,10.75003,10,
638524994461852408,671022,13.83971,10.75003,10,
638524994461962417,671033,13.83971,10.75003,10,
638524994462072414,671044,13.83971,10.75003,10,
638524994462192421,671056,13.83971,10.75003,10,
638524994462292410,671066,13.83971,10.75003,10,
638524994462412410,671078,13.83971,10.75003,10,
638524994462522408,671089,13.83971,10.75003,10,
638524994462632420,671100,13.83971,10.75003,10,
638524994462742420,671111,13.83971,10.75003,10,
638524994462852407,671122,13.83971,10.75003,10,
638524994462962410,671133,13.83971,10.75003,10,
638524994463072406,671144,13.83971,10.75003,10,
638524994463192417,671156,13.83971,10.75003,10,
638524994463302420,671167,13.83971,10.75003,10,
638524994463412419,671178,13.83971,10.75003,10,
638524994463522415,671189,13.83971,10.75003,10,
638524994463632410,671200,13.83971,10.75003,10,
638524994463742417,671211,13.83971,10.75003,10,
638524994463852427,671222,13.83971,10.75003,10,
638524994463962412,671233,13.83971,10.75003,10,
638524994464072410,671244,13.83971,10.75003,10,
638524994464192412,671256,13.83971,10.75003,10,
638524994464292596,671266,13.83971,10.75003,10,
638524994464412424,671278,13.83971,10.75003,10,
638524994464522415,671289,13.83971,10.75003,10,
638524994464632415,671300,13.83971,10.75003,10,
638524994464742431,671311,13.83971,10.75003,10,
638524994464852418,671322,13.83971,10.75003,10,
638524994464962414,671333,13.83971,10.75003,10,
638524994465072415,671344,13.83971,10.75003,10,
638524994465182416,671355,13.83971,10.75003,10,
638524994465292417,671366,13.83971,10.75003,10,
638524994465412412,671377,13.83971,10.75003,10,
638524994465522412,671389,13.83971,10.75003,10,
638524994465632416,671400,13.83971,10.75003,10,
638524994465742413,671411,13.83971,10.75003,10,
638524994465862430,671423,13.83971,10.75003,10,
638524994465962403,671433,13.83971,10.75003,10,
638524994466082418,671444,13.83971,10.75003,10,
638524994466182408,671455,13.83971,10.75003,10,
638524994466292409,671466,13.83971,10.75003,10,
638524994466412426,671478,13.83971,10.75003,10,
638524994466522410,671489,13.83971,10.75003,10,
638524994466632409,671500,13.83971,10.75003,10,
638524994466742413,671511,13.83971,10.75003,10,
638524994466852420,671522,13.83971,10.75003,10,
638524994466962405,671533,13.83971,10.75003,10,
638524994467072411,671544,13.83971,10.75003,10,
638524994467182424,671555,13.83971,10.75003,10,
638524994467302423,671566,13.83971,10.75003,10,
638524994467402419,671577,13.83971,10.75003,10,
638524994467522427,671589,13.83971,10.75003,10,
638524994467632411,671600,13.83971,10.75003,10,
638524994467742411,671611,13.83971,10.75003,10,
638524994467852428,671622,13.83971,10.75003,10,
638524994467962412,671633,13.83971,10.75003,10,
638524994468072419,671644,13.83971,10.75003,10,
638524994468192420,671655,13.83971,10.75003,10,
638524994468292424,671666,13.83971,10.75003,10,
638524994468402405,671677,13.83971,10.75003,10,
638524994468522419,671688,13.83971,10.75003,10,
638524994468632413,671700,13.83971,10.75003,10,
638524994468742416,671711,13.83971,10.75003,10,
638524994468852421,671722,13.83971,10.75003,10,
638524994468962418,671733,13.83971,10.75003,10,
638524994469072416,671744,13.83971,10.75003,10,
638524994469182417,671755,13.83971,10.75003,10,
638524994469292416,671766,13.83971,10.75003,10,
638524994469402405,671777,13.83971,10.75003,10,
638524994469522414,671789,13.83971,10.75003,10,
638524994469632412,671799,13.83971,10.75003,10,
638524994469742436,671811,13.83971,10.75003,10,
638524994469852408,671822,13.83971,10.75003,10,
638524994469962427,671833,13.83971,10.75003,10,
638524994470082425,671844,13.83971,10.75003,10,
638524994470192416,671856,13.83971,10.75003,10,
638524994470292412,671866,13.83971,10.75003,10,
638524994470402436,671877,13.83971,10.75003,10,
638524994470522419,671889,13.83971,10.75003,10,
638524994470622419,671899,13.83971,10.75003,10,
638524994470742420,671911,13.83971,10.75003,10,
638524994470852421,671922,13.83971,10.75003,10,
638524994470962410,671933,13.83971,10.75003,10,
638524994471072424,671944,13.83971,10.75003,10,
638524994471182403,671955,13.83971,10.75003,10,
638524994471292409,671966,13.83971,10.75003,10,
638524994471402403,671977,13.83971,10.75003,10,
638524994471522433,671989,13.83971,10.75003,10,
638524994471622431,671999,13.83971,10.75003,10,
638524994471742411,672010,13.83971,10.75003,10,
638524994471852425,672022,13.83971,10.75003,10,
638524994471962403,672033,13.83971,10.75003,10,
638524994472072416,672044,13.83971,10.75003,10,
638524994472182420,672055,13.83971,10.75003,10,
638524994472292414,672066,13.83971,10.75003,10,
638524994472402408,672077,13.83971,10.75003,10,
