time(100ns),time_stamp(ms),object1.x,object1.y,object1.z,
638524907848120349,253765,-9.560319,0.6691875,10,
638524907848180351,253771,-9.560319,0.6691875,10,
638524907848240358,253777,-9.560319,0.6691875,10,
638524907848340351,253787,-9.560319,0.6691875,10,
638524907848450351,253798,-9.560319,0.6691875,10,
638524907848560346,253809,-9.560319,0.6691875,10,
638524907848670355,253820,-9.560319,0.6691875,10,
638524907848780355,253832,-9.560319,0.6691875,10,
638524907848900348,253843,-9.560319,0.6691875,10,
638524907849000365,253854,-9.560319,0.6691875,10,
638524907849120346,253865,-9.560319,0.6691875,10,
638524907849230351,253876,-9.560319,0.6691875,10,
638524907849340346,253887,-9.560319,0.6691875,10,
638524907849450355,253898,-9.560319,0.6691875,10,
638524907849560349,253909,-9.560319,0.6691875,10,
638524907849676040,253920,-9.560319,0.6691875,10,
638524907849791171,253932,-9.560319,0.6691875,10,
638524907849891171,253943,-9.560319,0.6691875,10,
638524907850001165,253954,-9.560319,0.6691875,10,
638524907850121166,253965,-9.560319,0.6691875,10,
638524907850231178,253976,-9.560319,0.6691875,10,
638524907850341176,253987,-9.560319,0.6691875,10,
638524907850451163,253998,-9.560319,0.6691875,10,
638524907850561167,254009,-9.560319,0.6691875,10,
638524907850671163,254021,-9.560319,0.6691875,10,
638524907850781170,254031,-9.560319,0.6691875,10,
638524907850891167,254043,-9.560319,0.6691875,10,
638524907851011166,254054,-9.560319,0.6691875,10,
638524907851111163,254065,-9.560319,0.6691875,10,
638524907851231181,254076,-9.560319,0.6691875,10,
638524907851341165,254087,-9.560319,0.6691875,10,
638524907851451167,254098,-9.560319,0.6691875,10,
638524907851561167,254109,-9.560319,0.6691875,10,
638524907851671167,254121,-9.560319,0.6691875,10,
638524907851791171,254132,-9.560319,0.6691875,10,
638524907851901164,254143,-9.560319,0.6691875,10,
638524907852011166,254154,-9.560319,0.6691875,10,
638524907852131163,254166,-9.560319,0.6691875,10,
638524907852242570,254177,-9.560319,0.6691875,10,
638524907852352566,254188,-9.560319,0.6691875,10,
638524907852462573,254200,-9.560319,0.6691875,10,
638524907852582581,254211,-9.560319,0.6691875,10,
638524907852687632,254222,-9.560319,0.6691875,10,
638524907852807448,254234,-9.560319,0.6691875,10,
638524907852917446,254245,-9.560319,0.6691875,10,
638524907853037459,254257,-9.560319,0.6691875,10,
638524907853147452,254268,-9.560319,0.6691875,10,
638524907853257441,254279,-9.560319,0.6691875,10,
638524907853377448,254291,-9.560319,0.6691875,10,
638524907853487443,254302,-9.560319,0.6691875,10,
638524907853597463,254313,-9.560319,0.6691875,10,
638524907853707445,254324,-9.560319,0.6691875,10,
638524907853817437,254335,-9.560319,0.6691875,10,
638524907853937449,254347,-9.560319,0.6691875,10,
638524907854047450,254358,-9.560319,0.6691875,10,
638524907854157450,254369,-9.560319,0.6691875,10,
638524907854267449,254380,-9.560319,0.6691875,10,
638524907854377447,254391,-9.560319,0.6691875,10,
638524907854487450,254402,-9.560319,0.6691875,10,
638524907854597450,254413,-9.560319,0.6691875,10,
638524907854707793,254424,-9.560319,0.6691875,10,
638524907854827787,254436,-9.560319,0.6691875,10,
638524907854937791,254446,-9.560319,0.6691875,10,
638524907855047792,254458,-9.560319,0.6691875,10,
638524907855157789,254469,-9.560319,0.6691875,10,
638524907855267789,254480,-9.560319,0.6691875,10,
638524907855377801,254491,-9.560319,0.6691875,10,
638524907855487807,254502,-9.560319,0.6691875,10,
638524907855597793,254513,-9.560319,0.6691875,10,
638524907855707785,254524,-9.560319,0.6691875,10,
638524907855817787,254535,-9.560319,0.6691875,10,
638524907855937792,254546,-9.560319,0.6691875,10,
638524907856047792,254558,-9.560319,0.6691875,10,
638524907856157785,254569,-9.560319,0.6691875,10,
638524907856267793,254580,-9.560319,0.6691875,10,
638524907856377799,254591,-9.560319,0.6691875,10,
638524907856487790,254602,-9.560319,0.6691875,10,
638524907856597788,254613,-9.560319,0.6691875,10,
638524907856707786,254624,-9.560319,0.6691875,10,
638524907856817811,254635,-9.560319,0.6691875,10,
638524907856937792,254647,-9.560319,0.6691875,10,
638524907857047796,254658,-9.560319,0.6691875,10,
638524907857157792,254669,-9.560319,0.6691875,10,
638524907857262977,254680,-9.560319,0.6691875,10,
638524907857382984,254691,-9.560319,0.6691875,10,
638524907857492985,254702,-9.560319,0.6691875,10,
638524907857602981,254713,-9.560319,0.6691875,10,
638524907857712979,254724,-9.560319,0.6691875,10,
638524907857822975,254735,-9.560319,0.6691875,10,
638524907857932981,254746,-9.560319,0.6691875,10,
638524907858042978,254758,-9.560319,0.6691875,10,
638524907858152977,254769,-9.560319,0.6691875,10,
638524907858262985,254780,-9.560319,0.6691875,10,
638524907858382979,254791,-9.560319,0.6691875,10,
638524907858492984,254802,-9.560319,0.6691875,10,
638524907858602995,254813,-9.560319,0.6691875,10,
638524907858708169,254824,-9.560319,0.6691875,10,
638524907858818186,254835,-9.560319,0.6691875,10,
638524907858928169,254846,-9.560319,0.6691875,10,
638524907859048177,254858,-9.560319,0.6691875,10,
638524907859158177,254869,-9.560319,0.6691875,10,
638524907859268172,254880,-9.560319,0.6691875,10,
638524907859378175,254891,-9.560319,0.6691875,10,
638524907859488169,254902,-9.560319,0.6691875,10,
638524907859598178,254913,-9.560319,0.6691875,10,
638524907859708276,254924,-9.560319,0.6691875,10,
638524907859818268,254935,-9.560319,0.6691875,10,
638524907859938281,254947,-9.560319,0.6691875,10,
638524907860038276,254957,-9.560319,0.6691875,10,
638524907860158269,254969,-9.560319,0.6691875,10,
638524907860268281,254980,-9.560319,0.6691875,10,
638524907860378284,254991,-9.560319,0.6691875,10,
638524907860498289,255002,-9.560319,0.6691875,10,
638524907860598270,255013,-9.560319,0.6691875,10,
638524907860708272,255024,-9.560319,0.6691875,10,
638524907860818268,255035,-9.560319,0.6691875,10,
638524907860928259,255046,-9.560319,0.6691875,10,
638524907861048274,255058,-9.560319,0.6691875,10,
638524907861148267,255068,-9.560319,0.6691875,10,
638524907861268279,255080,-9.560319,0.6691875,10,
638524907861378283,255091,-9.560319,0.6691875,10,
638524907861488277,255102,-9.560319,0.6691875,10,
638524907861598271,255113,-9.560319,0.6691875,10,
638524907861708284,255124,-9.560319,0.6691875,10,
638524907861828270,255136,-9.560319,0.6691875,10,
638524907861928288,255146,-9.560319,0.6691875,10,
638524907862038267,255157,-9.560319,0.6691875,10,
638524907862158273,255169,-9.560319,0.6691875,10,
638524907862261670,255180,-9.560319,0.6691875,10,
638524907862371679,255191,-9.560319,0.6691875,10,
638524907862491677,255202,-9.560319,0.6691875,10,
638524907862601696,255213,-9.560319,0.6691875,10,
638524907862711680,255224,-9.560319,0.6691875,10,
638524907862821671,255235,-9.560319,0.6691875,10,
638524907862931691,255246,-9.560319,0.6691875,10,
638524907863041676,255257,-9.560319,0.6691875,10,
638524907863151678,255268,-9.560319,0.6691875,10,
638524907863261675,255279,-9.560319,0.6691875,10,
638524907863371678,255291,-9.560319,0.6691875,10,
638524907863491675,255302,-9.560319,0.6691875,10,
638524907863591674,255313,-9.560319,0.6691875,10,
638524907863711810,255324,-9.560319,0.6691875,10,
638524907863821810,255335,-9.560319,0.6691875,10,
638524907863931815,255346,-9.560319,0.6691875,10,
638524907864041813,255357,-9.560319,0.6691875,10,
638524907864151807,255368,-9.560319,0.6691875,10,
638524907864261802,255379,-9.560319,0.6691875,10,
638524907864372065,255391,-9.560319,0.6691875,10,
638524907864481805,255402,-9.560319,0.6691875,10,
638524907864591812,255413,-9.560319,0.6691875,10,
638524907864701916,255424,-9.560319,0.6691875,10,
638524907864821922,255435,-9.560319,0.6691875,10,
638524907864931918,255446,-9.560319,0.6691875,10,
638524907865041911,255457,-9.560319,0.6691875,10,
638524907865151922,255468,-9.560319,0.6691875,10,
638524907865261910,255479,-9.560319,0.6691875,10,
638524907865371919,255491,-9.560319,0.6691875,10,
638524907865481922,255502,-9.560319,0.6691875,10,
638524907865591918,255513,-9.560319,0.6691875,10,
638524907865701928,255524,-9.560319,0.6691875,10,
638524907865811930,255535,-9.560319,0.6691875,10,
638524907865931916,255546,-9.560319,0.6691875,10,
638524907866041919,255557,-9.560319,0.6691875,10,
638524907866151904,255568,-9.560319,0.6691875,10,
638524907866261919,255579,-9.560319,0.6691875,10,
638524907866371922,255591,-9.560319,0.6691875,10,
638524907866481919,255602,-9.560319,0.6691875,10,
638524907866591921,255613,-9.560319,0.6691875,10,
638524907866701918,255624,-9.560319,0.6691875,10,
638524907866821918,255635,-9.560319,0.6691875,10,
638524907866931916,255646,-9.560319,0.6691875,10,
638524907867041920,255657,-9.560319,0.6691875,10,
638524907867151922,255668,-9.560319,0.6691875,10,
638524907867257756,255679,-9.560319,0.6691875,10,
638524907867377747,255691,-9.560319,0.6691875,10,
638524907867487743,255701,-9.560319,0.6691875,10,
638524907867597741,255713,-9.560319,0.6691875,10,
638524907867707753,255724,-9.560319,0.6691875,10,
638524907867817738,255735,-9.560319,0.6691875,10,
638524907867927734,255746,-9.560319,0.6691875,10,
638524907868037738,255757,-9.560319,0.6691875,10,
638524907868147761,255768,-9.560319,0.6691875,10,
638524907868257744,255779,-9.560319,0.6691875,10,
638524907868367737,255790,-9.560319,0.6691875,10,
638524907868487752,255802,-9.560319,0.6691875,10,
638524907868597747,255812,-9.560319,0.6691875,10,
638524907868702924,255824,-9.560319,0.6691875,10,
638524907868812933,255835,-9.560319,0.6691875,10,
638524907868928076,255846,-9.560319,0.6691875,10,
638524907869038089,255857,-9.560319,0.6691875,10,
638524907869148095,255868,-9.560319,0.6691875,10,
638524907869258082,255879,-9.560319,0.6691875,10,
638524907869378089,255890,-9.560319,0.6691875,10,
638524907869478096,255901,-9.560319,0.6691875,10,
638524907869598078,255912,-9.560319,0.6691875,10,
638524907869709256,255924,-9.560319,0.6691875,10,
638524907869819258,255935,-9.560319,0.6691875,10,
638524907869929359,255946,-9.560319,0.6691875,10,
638524907870039361,255957,-9.560319,0.6691875,10,
638524907870149375,255968,-9.560319,0.6691875,10,
638524907870259365,255979,-9.560319,0.6691875,10,
638524907870369365,255990,-9.560319,0.6691875,10,
638524907870479367,256001,-9.560319,0.6691875,10,
638524907870599370,256013,-9.560319,0.6691875,10,
638524907870709370,256024,-9.560319,0.6691875,10,
638524907870809372,256034,-9.560319,0.6691875,10,
638524907870929368,256046,-9.560319,0.6691875,10,
638524907871039368,256057,-9.560319,0.6691875,10,
638524907871139360,256068,-9.560319,0.6691875,10,
638524907871259352,256079,-9.560319,0.6691875,10,
638524907871369375,256090,-9.560319,0.6691875,10,
638524907871479368,256101,-9.560319,0.6691875,10,
638524907871589369,256112,-9.560319,0.6691875,10,
638524907871709372,256124,-9.560319,0.6691875,10,
638524907871809364,256134,-9.560319,0.6691875,10,
638524907871929456,256146,-9.560319,0.6691875,10,
638524907872039457,256157,-9.560319,0.6691875,10,
638524907872149455,256168,-9.560319,0.6691875,10,
638524907872259460,256179,-9.560319,0.6691875,10,
638524907872369454,256190,-9.560319,0.6691875,10,
638524907872479452,256201,-9.560319,0.6691875,10,
638524907872599456,256213,-9.560319,0.6691875,10,
638524907872699463,256223,-9.560319,0.6691875,10,
638524907872819458,256235,-9.560319,0.6691875,10,
638524907872929457,256246,-9.560319,0.6691875,10,
638524907873039459,256257,-9.560319,0.6691875,10,
638524907873149459,256268,-9.560319,0.6691875,10,
638524907873259456,256279,-9.560319,0.6691875,10,
638524907873369460,256290,-9.560319,0.6691875,10,
638524907873479446,256301,-9.560319,0.6691875,10,
638524907873589460,256312,-9.560319,0.6691875,10,
638524907873709457,256324,-9.560319,0.6691875,10,
638524907873809472,256334,-9.560319,0.6691875,10,
638524907873929461,256346,-9.560319,0.6691875,10,
638524907874039459,256357,-9.560319,0.6691875,10,
638524907874139458,256368,-9.560319,0.6691875,10,
638524907874259454,256379,-9.560319,0.6691875,10,
638524907874369459,256390,-9.560319,0.6691875,10,
638524907874479464,256401,-9.560319,0.6691875,10,
638524907874589455,256412,-9.560319,0.6691875,10,
638524907874709558,256424,-9.560319,0.6691875,10,
638524907874809550,256434,-9.560319,0.6691875,10,
638524907874929669,256446,-9.560319,0.6691875,10,
638524907875039667,256457,-9.560319,0.6691875,10,
638524907875149678,256468,-9.560319,0.6691875,10,
638524907875259669,256479,-9.560319,0.6691875,10,
638524907875369660,256490,-9.560319,0.6691875,10,
638524907875479674,256501,-9.560319,0.6691875,10,
638524907875589669,256512,-9.560319,0.6691875,10,
638524907875699675,256523,-9.560319,0.6691875,10,
638524907875809682,256535,-9.560319,0.6691875,10,
638524907875919674,256546,-9.560319,0.6691875,10,
638524907876039656,256557,-9.560319,0.6691875,10,
638524907876149661,256568,-9.560319,0.6691875,10,
638524907876259678,256580,-9.560319,0.6691875,10,
638524907876369679,256590,-9.560319,0.6691875,10,
638524907876479668,256601,-9.560319,0.6691875,10,
638524907876589676,256612,-9.560319,0.6691875,10,
638524907876709668,256624,-9.560319,0.6691875,10,
638524907876809662,256634,-9.560319,0.6691875,10,
638524907876919791,256645,-9.560319,0.6691875,10,
638524907877039790,256657,-9.560319,0.6691875,10,
638524907877149788,256668,-9.560319,0.6691875,10,
638524907877259798,256679,-9.560319,0.6691875,10,
638524907877369796,256690,-9.560319,0.6691875,10,
638524907877479797,256701,-9.560319,0.6691875,10,
638524907877589780,256712,-9.560319,0.6691875,10,
638524907877709785,256724,-9.560319,0.6691875,10,
638524907877809785,256734,-9.560319,0.6691875,10,
638524907877919793,256745,-9.560319,0.6691875,10,
638524907878029779,256757,-9.560319,0.6691875,10,
638524907878149788,256768,-9.560319,0.6691875,10,
638524907878259789,256779,-9.560319,0.6691875,10,
638524907878369793,256790,-9.560319,0.6691875,10,
638524907878479789,256801,-9.560319,0.6691875,10,
638524907878589788,256812,-9.560319,0.6691875,10,
638524907878704231,256823,-9.560319,0.6691875,10,
638524907878814229,256834,-9.560319,0.6691875,10,
638524907878924329,256845,-9.560319,0.6691875,10,
638524907879034330,256857,-9.560319,0.6691875,10,
638524907879144336,256868,-9.560319,0.6691875,10,
638524907879254328,256879,-9.560319,0.6691875,10,
638524907879364342,256890,-9.560319,0.6691875,10,
638524907879474327,256901,-9.560319,0.6691875,10,
638524907879594346,256912,-9.560319,0.6691875,10,
638524907879704437,256923,-9.560319,0.6691875,10,
638524907879814438,256934,-9.560319,0.6691875,10,
638524907879924434,256945,-9.560319,0.6691875,10,
638524907880034440,256957,-9.560319,0.6691875,10,
638524907880144441,256967,-9.560319,0.6691875,10,
638524907880254452,256979,-9.560319,0.6691875,10,
638524907880364450,256990,-9.560319,0.6691875,10,
638524907880474454,257001,-9.560319,0.6691875,10,
638524907880584437,257012,-9.560319,0.6691875,10,
638524907880704439,257023,-9.560319,0.6691875,10,
638524907880814440,257034,-9.560319,0.6691875,10,
638524907880920606,257045,-9.560319,0.6691875,10,
638524907881040601,257057,-9.560319,0.6691875,10,
638524907881140603,257067,-9.560319,0.6691875,10,
638524907881260615,257079,-9.560319,0.6691875,10,
638524907881370602,257090,-9.560319,0.6691875,10,
638524907881480606,257101,-9.560319,0.6691875,10,
638524907881590598,257112,-9.560319,0.6691875,10,
638524907881700604,257123,-9.560319,0.6691875,10,
638524907881810594,257134,-9.560319,0.6691875,10,
638524907881925996,257145,-9.560319,0.6691875,10,
638524907882035999,257156,-9.560319,0.6691875,10,
638524907882145997,257168,-9.560319,0.6691875,10,
638524907882255999,257179,-9.560319,0.6691875,10,
638524907882365993,257190,-9.560319,0.6691875,10,
638524907882476000,257201,-9.560319,0.6691875,10,
638524907882585996,257212,-9.560319,0.6691875,10,
638524907882696006,257223,-9.560319,0.6691875,10,
638524907882815990,257234,-9.560319,0.6691875,10,
638524907882926005,257245,-9.560319,0.6691875,10,
638524907883035986,257256,-9.560319,0.6691875,10,
638524907883145994,257267,-9.560319,0.6691875,10,
638524907883256000,257278,-9.560319,0.6691875,10,
638524907883366005,257290,-9.560319,0.6691875,10,
638524907883475991,257301,-9.560319,0.6691875,10,
638524907883585997,257312,-9.560319,0.6691875,10,
638524907883696002,257323,-9.560319,0.6691875,10,
638524907883805980,257334,-9.560319,0.6691875,10,
638524907883926003,257345,-9.560319,0.6691875,10,
638524907884036001,257357,-9.560319,0.6691875,10,
638524907884145996,257367,-9.560319,0.6691875,10,
638524907884255995,257378,-9.560319,0.6691875,10,
638524907884365996,257390,-9.560319,0.6691875,10,
638524907884475986,257401,-9.560319,0.6691875,10,
638524907884585997,257412,-9.560319,0.6691875,10,
638524907884695996,257423,-9.560319,0.6691875,10,
638524907884805998,257434,-9.560319,0.6691875,10,
638524907884915991,257445,-9.560319,0.6691875,10,
638524907885036001,257456,-9.560319,0.6691875,10,
638524907885145987,257467,-9.560319,0.6691875,10,
638524907885255987,257478,-9.560319,0.6691875,10,
638524907885365992,257490,-9.560319,0.6691875,10,
638524907885477721,257501,-9.560319,0.6691875,10,
638524907885585994,257512,-9.560319,0.6691875,10,
638524907885695988,257523,-9.560319,0.6691875,10,
638524907885805992,257534,-9.560319,0.6691875,10,
638524907885915996,257545,-9.560319,0.6691875,10,
638524907886026007,257556,-9.560319,0.6691875,10,
638524907886135990,257567,-9.560319,0.6691875,10,
638524907886255997,257578,-9.560319,0.6691875,10,
638524907886365984,257590,-9.560319,0.6691875,10,
638524907886475987,257601,-9.560319,0.6691875,10,
638524907886585999,257612,-9.560319,0.6691875,10,
638524907886696002,257623,-9.560319,0.6691875,10,
638524907886805990,257634,-9.560319,0.6691875,10,
638524907886915985,257645,-9.560319,0.6691875,10,
638524907887026011,257656,-9.560319,0.6691875,10,
638524907887145991,257667,-9.560319,0.6691875,10,
638524907887255995,257679,-9.560319,0.6691875,10,
638524907887365995,257690,-9.560319,0.6691875,10,
638524907887475992,257700,-9.560319,0.6691875,10,
638524907887585990,257712,-9.560319,0.6691875,10,
638524907887696005,257723,-9.560319,0.6691875,10,
638524907887806004,257734,-9.560319,0.6691875,10,
638524907887916005,257745,-9.560319,0.6691875,10,
638524907888026007,257756,-9.560319,0.6691875,10,
638524907888146003,257767,-9.560319,0.6691875,10,
638524907888245984,257778,-9.560319,0.6691875,10,
638524907888365995,257789,-9.560319,0.6691875,10,
638524907888476000,257801,-9.560319,0.6691875,10,
638524907888585995,257811,-9.560319,0.6691875,10,
638524907888695993,257823,-9.560319,0.6691875,10,
638524907888805983,257834,-9.560319,0.6691875,10,
638524907888915998,257845,-9.560319,0.6691875,10,
638524907889025997,257856,-9.560319,0.6691875,10,
638524907889145999,257867,-9.560319,0.6691875,10,
638524907889255997,257878,-9.560319,0.6691875,10,
638524907889365997,257889,-9.560319,0.6691875,10,
638524907889475995,257900,-9.560319,0.6691875,10,
638524907889585990,257912,-9.560319,0.6691875,10,
638524907889695997,257923,-9.560319,0.6691875,10,
638524907889806002,257934,-9.560319,0.6691875,10,
638524907889926002,257945,-9.560319,0.6691875,10,
638524907890035996,257957,-9.560319,0.6691875,10,
638524907890155993,257969,-9.560319,0.6691875,10,
638524907890245985,257978,-9.560319,0.6691875,10,
638524907890415997,257995,-9.560319,0.6691875,10,
638524907890535988,258007,-9.560319,0.6691875,10,
638524907890646002,258018,-9.560319,0.6691875,10,
638524907890755984,258028,-9.560319,0.6691875,10,
638524907890865987,258040,-9.560319,0.6691875,10,
638524907890986004,258051,-9.560319,0.6691875,10,
638524907891106000,258064,-9.560319,0.6691875,10,
638524907891215985,258075,-9.560319,0.6691875,10,
638524907891326010,258085,-9.560319,0.6691875,10,
638524907891415987,258095,-9.560319,0.6691875,10,
638524907891515991,258105,-9.560319,0.6691875,10,
638524907891605991,258113,-9.560319,0.6691875,10,
638524907891685999,258122,-9.560319,0.6691875,10,
638524907891795986,258133,-9.560319,0.6691875,10,
638524907891905989,258144,-9.560319,0.6691875,10,
638524907892015985,258155,-9.560319,0.6691875,10,
638524907892205989,258173,-9.560319,0.6691875,10,
