time(100ns),time_stamp(ms),object1.x,object1.y,object1.z,object2.x,object2.y,object2.z,object3.x,object3.y,object3.z,
638524908554680147,324421,-17.98634,3.062134,20,-33.68398,-34.63966,20,-7.120099,-34.54599,20,
638524908554730150,324426,-17.93996,3.054238,19.94843,-33.59712,-34.55033,19.94843,-7.10174,-34.45691,19.94843,
638524908554800160,324433,-17.92611,3.051881,19.93303,-33.57119,-34.52367,19.93303,-7.096259,-34.43032,19.93303,
638524908554910173,324444,-17.9071,3.048644,19.91189,-33.53558,-34.48706,19.91189,-7.088733,-34.39381,19.91189,
638524908555020139,324456,-17.87687,3.043499,19.87828,-33.47898,-34.42884,19.87828,-7.076768,-34.33575,19.87828,
638524908555140144,324467,-17.84699,3.038411,19.84506,-33.42302,-34.3713,19.84506,-7.064939,-34.27836,19.84506,
638524908555250139,324478,-17.81633,3.033191,19.81096,-33.36559,-34.31224,19.81096,-7.0528,-34.21947,19.81096,
638524908555360184,324489,-17.78706,3.028208,19.77842,-33.31078,-34.25587,19.77842,-7.041214,-34.16325,19.77842,
638524908555470140,324500,-17.75706,3.023101,19.74506,-33.2546,-34.1981,19.74506,-7.02934,-34.10564,19.74506,
638524908555580152,324511,-17.72684,3.017955,19.71145,-33.19799,-34.13989,19.71145,-7.017375,-34.04758,19.71145,
638524908555690151,324522,-17.69719,3.012908,19.67849,-33.14248,-34.0828,19.67849,-7.005639,-33.99065,19.67849,
638524908555800147,324533,-17.66646,3.007677,19.64432,-33.08493,-34.02362,19.64432,-6.993475,-33.93163,19.64432,
638524908555910162,324544,-17.63742,3.002733,19.61203,-33.03054,-33.96769,19.61203,-6.981978,-33.87585,19.61203,
638524908556020142,324555,-17.60744,2.997629,19.57869,-32.9744,-33.90995,19.57869,-6.970111,-33.81827,19.57869,
638524908556140150,324567,-17.57734,2.992504,19.54522,-32.91803,-33.85199,19.54522,-6.958196,-33.76046,19.54522,
638524908556250145,324578,-17.54702,2.987342,19.51151,-32.86125,-33.79359,19.51151,-6.946193,-33.70222,19.51151,
638524908556360162,324589,-17.51733,2.982287,19.47849,-32.80564,-33.7364,19.47849,-6.934438,-33.64519,19.47849,
638524908556470147,324600,-17.4876,2.977226,19.44544,-32.74997,-33.67916,19.44544,-6.922671,-33.5881,19.44544,
638524908556580139,324611,-17.45743,2.972089,19.41189,-32.69347,-33.62105,19.41189,-6.910727,-33.53014,19.41189,
638524908556690146,324622,-17.42743,2.966981,19.37853,-32.63728,-33.56327,19.37853,-6.89885,-33.47252,19.37853,
638524908556800148,324633,-17.39786,2.961947,19.34564,-32.5819,-33.50632,19.34564,-6.887143,-33.41572,19.34564,
638524908556910144,324644,-17.3678,2.95683,19.31222,-32.52561,-33.44843,19.31222,-6.875246,-33.35799,19.31222,
638524908557020149,324655,-17.3377,2.951706,19.27876,-32.46925,-33.39047,19.27876,-6.863331,-33.30018,19.27876,
638524908557130141,324667,-17.30773,2.946603,19.24543,-32.41311,-33.33274,19.24543,-6.851466,-33.24261,19.24543,
638524908557250147,324678,-17.27788,2.941521,19.21224,-32.35722,-33.27526,19.21224,-6.839651,-33.18528,19.21224,
638524908557360159,324689,-17.24756,2.936359,19.17853,-32.30043,-33.21687,19.17853,-6.827648,-33.12705,19.17853,
638524908557470145,324700,-17.21794,2.931317,19.14559,-32.24496,-33.15982,19.14559,-6.815922,-33.07016,19.14559,
638524908557580141,324711,-17.18797,2.926214,19.11226,-32.18884,-33.1021,19.11226,-6.804059,-33.0126,19.11226,
638524908557690153,324722,-17.15781,2.921079,19.07872,-32.13235,-33.04401,19.07872,-6.792118,-32.95466,19.07872,
638524908557800141,324733,-17.12766,2.915946,19.0452,-32.07589,-32.98595,19.0452,-6.780184,-32.89676,19.0452,
638524908557910150,324744,-17.09813,2.910918,19.01236,-32.02057,-32.92906,19.01236,-6.768491,-32.84003,19.01236,
638524908558020143,324755,-17.0682,2.905823,18.97908,-31.96453,-32.87143,18.97908,-6.756643,-32.78254,18.97908,
638524908558130162,324767,-17.03793,2.90067,18.94542,-31.90785,-32.81314,18.94542,-6.744662,-32.72441,18.94542,
638524908558250144,324778,-17.00792,2.895561,18.91205,-31.85164,-32.75534,18.91205,-6.732782,-32.66677,18.91205,
638524908558360148,324789,-16.97766,2.890408,18.8784,-31.79496,-32.69705,18.8784,-6.720801,-32.60864,18.8784,
638524908558480155,324801,-16.94703,2.885194,18.84435,-31.73761,-32.63807,18.84435,-6.708678,-32.54982,18.84435,
638524908558590147,324812,-16.91604,2.879919,18.80989,-31.67958,-32.57839,18.80989,-6.696411,-32.49031,18.80989,
638524908558700159,324823,-16.88595,2.874796,18.77643,-31.62323,-32.52044,18.77643,-6.6845,-32.43251,18.77643,
638524908558810140,324834,-16.85534,2.869584,18.74239,-31.5659,-32.46149,18.74239,-6.672382,-32.37372,18.74239,
638524908558930146,324846,-16.82479,2.864382,18.70841,-31.50868,-32.40264,18.70841,-6.660286,-32.31503,18.70841,
638524908559040148,324857,-16.79429,2.85919,18.6745,-31.45156,-32.34391,18.6745,-6.648213,-32.25645,18.6745,
638524908559150141,324868,-16.76384,2.854007,18.64065,-31.39454,-32.28527,18.64065,-6.63616,-32.19798,18.64065,
638524908559260137,324880,-16.73352,2.848844,18.60693,-31.33776,-32.22688,18.60693,-6.624157,-32.13974,18.60693,
638524908559380151,324891,-16.703,2.843647,18.57299,-31.28059,-32.16809,18.57299,-6.612073,-32.08111,18.57299,
638524908559490131,324902,-16.67239,2.838437,18.53896,-31.22328,-32.10915,18.53896,-6.599958,-32.02233,18.53896,
638524908559600145,324914,-16.64173,2.833218,18.50487,-31.16586,-32.0501,18.50487,-6.587821,-31.96344,18.50487,
638524908559720147,324925,-16.61117,2.828014,18.47088,-31.10862,-31.99124,18.47088,-6.575722,-31.90474,18.47088,
638524908559830137,324936,-16.58048,2.82279,18.43676,-31.05116,-31.93214,18.43676,-6.563575,-31.8458,18.43676,
638524908559940148,324948,-16.55037,2.817663,18.40328,-30.99476,-31.87415,18.40328,-6.551653,-31.78796,18.40328,
638524908560060141,324959,-16.51948,2.812405,18.36893,-30.93692,-31.81467,18.36893,-6.539427,-31.72864,18.36893,
638524908560170137,324970,-16.48924,2.807257,18.33531,-30.88028,-31.75642,18.33531,-6.527456,-31.67056,18.33531,
638524908560280147,324981,-16.45876,2.802066,18.30141,-30.82318,-31.69771,18.30141,-6.515387,-31.612,18.30141,
638524908560390141,324993,-16.42833,2.796885,18.26757,-30.7662,-31.6391,18.26757,-6.50334,-31.55355,18.26757,
638524908560510151,325004,-16.39824,2.791764,18.23412,-30.70986,-31.58117,18.23412,-6.491432,-31.49578,18.23412,
638524908560620146,325015,-16.36731,2.786497,18.19972,-30.65192,-31.52158,18.19972,-6.479185,-31.43635,18.19972,
638524908560730142,325026,-16.3378,2.781474,18.16691,-30.59667,-31.46477,18.16691,-6.467505,-31.37969,18.16691,
638524908560840143,325037,-16.30834,2.776458,18.13415,-30.54149,-31.40802,18.13415,-6.455841,-31.32309,18.13415,
638524908560950152,325048,-16.27837,2.771355,18.10082,-30.48536,-31.3503,18.10082,-6.443977,-31.26553,18.10082,
638524908561060141,325059,-16.24826,2.766229,18.06734,-30.42898,-31.29231,18.06734,-6.432058,-31.2077,18.06734,
638524908561180155,325071,-16.21836,2.761139,18.03409,-30.37298,-31.23473,18.03409,-6.420222,-31.15027,18.03409,
638524908561280155,325081,-16.18733,2.755856,17.99959,-30.31487,-31.17497,17.99959,-6.407939,-31.09067,17.99959,
638524908561390154,325093,-16.15837,2.750925,17.96738,-30.26063,-31.11919,17.96738,-6.396473,-31.03504,17.96738,
638524908561510145,325104,-16.12837,2.745819,17.93403,-30.20446,-31.06143,17.93403,-6.3846,-30.97744,17.93403,
638524908561620143,325115,32.96899,19.64246,20,-30.14753,-31.00288,17.90023,-6.372565,-30.91904,17.90023,
638524908561730155,325126,32.9146,19.61006,19.96701,-30.09196,-30.94574,17.86724,-6.36082,-30.86206,17.86724,
638524908561840151,325137,32.86054,19.57785,19.93421,-30.03672,-30.88893,17.83444,-6.349144,-30.80541,17.83444,
638524908561960152,325149,32.80405,19.5442,19.89995,-29.97902,-30.82959,17.80017,-6.336946,-30.74622,17.80017,
638524908562060134,325159,32.7476,19.51056,19.8657,-29.92134,-30.77027,17.76592,-6.324753,-30.68707,17.76592,
638524908562170137,325170,32.69554,19.47955,19.83412,-29.86815,-30.71558,17.73435,-6.313511,-30.63252,17.73435,
638524908562290148,325182,32.64037,19.44667,19.80065,-29.81178,-30.65761,17.70088,-6.301596,-30.57471,17.70088,
638524908562390143,325192,32.58482,19.41358,19.76695,-29.75503,-30.59924,17.66718,-6.289599,-30.5165,17.66718,
638524908562500150,325204,32.53074,19.38136,19.73415,-29.69978,-30.54243,17.63438,-6.277922,-30.45984,17.63438,
638524908562620152,325215,32.47605,19.34878,19.70097,-29.6439,-30.48497,17.6012,-6.26611,-30.40253,17.6012,
638524908562730151,325226,32.4209,19.31592,19.66751,-29.58755,-30.42702,17.56774,-6.254199,-30.34474,17.56774,
638524908562840145,325237,32.36533,19.28281,19.63381,-29.53078,-30.36864,17.53403,-6.242199,-30.28651,17.53403,
638524908562950141,325248,32.31128,19.2506,19.60101,-29.47555,-30.31184,17.50124,-6.230524,-30.22987,17.50124,
638524908563060137,325259,32.25633,19.21787,19.56768,-29.41941,-30.2541,17.46791,-6.218657,-30.17229,17.46791,
638524908563170140,325270,32.20071,19.18473,19.53394,-29.36259,-30.19567,17.43417,-6.206646,-30.11402,17.43417,
638524908563280146,325281,32.14565,19.15192,19.50053,-29.30633,-30.13781,17.40076,-6.194753,-30.05631,17.40076,
638524908563430140,325296,32.09181,19.11985,19.46788,-29.25133,-30.08125,17.3681,-6.183127,-29.9999,17.3681,
638524908563530144,325307,32.01937,19.07669,19.42393,-29.17731,-30.00514,17.32416,-6.167482,-29.924,17.32416,
638524908563650167,325318,31.96694,19.04545,19.39212,-29.12374,-29.95005,17.29235,-6.156159,-29.86906,17.29235,
638524908563810135,325334,31.91162,19.0125,19.35856,-29.06722,-29.89193,17.25879,-6.144212,-29.81109,17.25879,
638524908563870145,325340,31.82986,18.96379,19.30897,-28.9837,-29.80603,17.2092,-6.126556,-29.72543,17.2092,
638524908563950154,325348,31.80072,18.94642,19.29129,-28.95392,-29.7754,17.19151,-6.120262,-29.69489,17.19151,
638524908564050145,325358,31.76267,18.92375,19.26821,-28.91504,-29.73543,17.16843,-6.112044,-29.65502,17.16843,
638524908564160147,325369,31.71278,18.89403,19.23794,-28.86407,-29.68301,17.13817,-6.101271,-29.60274,17.13817,
638524908564270139,325380,31.65745,18.86106,19.20438,-28.80755,-29.62488,17.10461,-6.089322,-29.54477,17.10461,
638524908564380149,325391,31.60294,18.82859,19.17131,-28.75186,-29.56761,17.07154,-6.077549,-29.48765,17.07154,
638524908564490138,325403,31.54797,18.79584,19.13796,-28.69569,-29.50985,17.03819,-6.065677,-29.43005,17.03819,
638524908564600143,325413,31.4925,18.76279,19.10431,-28.63902,-29.45157,17.00454,-6.053698,-29.37193,17.00454,
638524908564710144,325425,31.43822,18.73045,19.07139,-28.58356,-29.39454,16.97161,-6.041976,-29.31505,16.97161,
638524908564830140,325436,31.38275,18.6974,19.03774,-28.52689,-29.33626,16.93797,-6.029996,-29.25693,16.93797,
638524908564940145,325447,31.32716,18.66428,19.00401,-28.47009,-29.27785,16.90424,-6.017991,-29.19868,16.90424,
638524908565050147,325458,31.27352,18.63232,18.97147,-28.41529,-29.22149,16.8717,-6.006406,-29.14247,16.8717,
638524908565160151,325469,31.21831,18.59943,18.93798,-28.35888,-29.16348,16.83821,-5.994483,-29.08462,16.83821,
638524908565270149,325480,31.16334,18.56668,18.90464,-28.30272,-29.10573,16.80486,-5.982612,-29.02702,16.80486,
638524908565380147,325491,31.10833,18.53391,18.87127,-28.24652,-29.04794,16.77149,-5.970733,-28.96939,16.77149,
638524908565490145,325502,31.05349,18.50124,18.838,-28.19049,-28.99032,16.73823,-5.958889,-28.91192,16.73823,
638524908565600146,325513,30.99869,18.46859,18.80476,-28.1345,-28.93274,16.70498,-5.947054,-28.8545,16.70498,
638524908565710150,325524,30.94325,18.43556,18.77112,-28.07786,-28.87449,16.67135,-5.935081,-28.79641,16.67135,
638524908565820148,325536,30.88854,18.40296,18.73793,-28.02196,-28.817,16.63816,-5.923265,-28.73907,16.63816,
638524908565940147,325547,30.83371,18.37029,18.70467,-27.96594,-28.7594,16.6049,-5.911424,-28.68163,16.6049,
638524908566050148,325558,30.77895,18.33767,18.67145,-27.90999,-28.70186,16.57168,-5.899597,-28.62424,16.57168,
638524908566160154,325569,30.7242,18.30505,18.63824,-27.85405,-28.64433,16.53846,-5.887773,-28.56687,16.53846,
638524908566267184,325580,30.66959,18.27251,18.60511,-27.79826,-28.58696,16.50534,-5.87598,-28.50965,16.50534,
638524908566377191,325591,30.61365,18.23918,18.57117,-27.7411,-28.52818,16.4714,-5.863897,-28.45103,16.4714,
638524908566487187,325602,30.55839,18.20626,18.53765,-27.68464,-28.47012,16.43788,-5.851964,-28.39313,16.43788,
638524908566607184,325613,30.50435,18.17406,18.50487,-27.62943,-28.41335,16.4051,-5.840294,-28.33651,16.4051,
638524908566717179,325625,30.44907,18.14113,18.47134,-27.57295,-28.35526,16.37156,-5.828356,-28.27858,16.37156,
638524908566827176,325636,30.39394,18.10828,18.43789,-27.51662,-28.29734,16.33812,-5.816449,-28.22081,16.33812,
638524908566937186,325647,30.33962,18.07592,18.40494,-27.46113,-28.24027,16.30517,-5.804718,-28.1639,16.30517,
638524908567047297,325658,30.28461,18.04314,18.37157,-27.40492,-28.18247,16.2718,-5.792838,-28.10625,16.2718,
638524908567157288,325669,30.22905,18.01004,18.33787,-27.34816,-28.12409,16.23809,-5.780839,-28.04804,16.23809,
638524908567267294,325680,30.17455,17.97757,18.30481,-27.29247,-28.06683,16.20503,-5.769069,-27.99093,16.20503,
638524908567377297,325691,30.11981,17.94497,18.2716,-27.23656,-28.00932,16.17183,-5.757249,-27.93358,16.17183,
638524908567487293,325702,30.06475,17.91216,18.2382,-27.1803,-27.95147,16.13843,-5.745358,-27.87588,16.13843,
638524908567607289,325713,30.00911,17.87901,18.20445,-27.12345,-27.89301,16.10467,-5.733341,-27.81758,16.10467,
638524908567717290,325725,29.95416,17.84627,18.17111,-27.06731,-27.83528,16.07134,-5.721474,-27.76,16.07134,
638524908567827294,325736,29.89816,17.81291,18.13714,-27.01009,-27.77643,16.03736,-5.709379,-27.70132,16.03736,
638524908567947291,325748,29.8422,17.77957,18.10319,-26.95292,-27.71764,16.00342,-5.697294,-27.64269,16.00342,
638524908568057405,325758,29.78589,17.74602,18.06903,-26.89539,-27.65847,15.96926,-5.685133,-27.58368,15.96926,
638524908568167396,325770,29.73149,17.71361,18.03603,-26.83981,-27.60132,15.93626,-5.673385,-27.52668,15.93626,
638524908568287420,325782,29.67558,17.6803,18.00212,-26.78269,-27.54258,15.90234,-5.66131,-27.4681,15.90234,
638524908568387404,325792,29.61775,17.64584,17.96703,-26.7236,-27.48182,15.86726,-5.648821,-27.4075,15.86726,
638524908568507396,325803,29.5649,17.61436,17.93497,-26.66961,-27.42628,15.8352,-5.637407,-27.35212,15.8352,
638524908568607402,325814,29.51017,17.58175,17.90177,-26.61369,-27.36878,15.802,-5.625587,-27.29477,15.802,
638524908568727399,325825,29.45546,17.54915,17.86858,-26.5578,-27.3113,15.76881,-5.613772,-27.23745,15.76881,
638524908568837399,325837,29.40025,17.51626,17.83509,-26.50139,-27.25329,15.73532,-5.601849,-27.17959,15.73532,
638524908568947406,325848,29.34543,17.4836,17.80184,-26.44538,-27.1957,15.70206,-5.59001,-27.12215,15.70206,
638524908569064099,325859,29.29037,17.4508,17.76844,-26.38913,-27.13785,15.66867,-5.57812,-27.06446,15.66867,
638524908569164094,325870,29.23495,17.41777,17.73481,-26.3325,-27.07961,15.63504,-5.566149,-27.00638,15.63504,
638524908569274098,325881,29.18088,17.38556,17.70201,-26.27726,-27.0228,15.60224,-5.554472,-26.94973,15.60224,
638524908569394097,325892,29.12557,17.35261,17.66846,-26.22075,-26.96469,15.56869,-5.542527,-26.89177,15.56869,
638524908569504109,325903,29.07046,17.31977,17.63503,-26.16444,-26.90679,15.53526,-5.530625,-26.83403,15.53526,
638524908569614097,325914,29.01582,17.28722,17.60188,-26.10862,-26.84938,15.50211,-5.518825,-26.77678,15.50211,
638524908569724098,325926,28.96091,17.25451,17.56857,-26.05252,-26.79169,15.4688,-5.506966,-26.71924,15.4688,
638524908569834098,325936,28.90515,17.22128,17.53474,-25.99555,-26.7331,15.43497,-5.494924,-26.66081,15.43497,
638524908569944094,325948,28.85131,17.18921,17.50208,-25.94054,-26.67653,15.40231,-5.483296,-26.60439,15.40231,
638524908570060193,325959,28.7964,17.1565,17.46878,-25.88444,-26.61885,15.36901,-5.471439,-26.54686,15.36901,
638524908570170190,325970,28.74119,17.1236,17.43528,-25.82803,-26.56084,15.33551,-5.459516,-26.48901,15.33551,
638524908570280207,325981,28.68504,17.09015,17.40122,-25.77066,-26.50184,15.30145,-5.447389,-26.43017,15.30145,
638524908570390195,325992,28.63126,17.05811,17.3686,-25.71572,-26.44534,15.26883,-5.435774,-26.37382,15.26883,
638524908570500203,326003,28.57623,17.02532,17.33522,-25.6595,-26.38752,15.23545,-5.423891,-26.31616,15.23545,
638524908570610321,326014,28.52075,16.99227,17.30156,-25.60281,-26.32923,15.20179,-5.411909,-26.25803,15.20179,
638524908570720307,326025,28.46635,16.95985,17.26856,-25.54723,-26.27207,15.16879,-5.40016,-26.20103,15.16879,
638524908570830310,326036,28.41149,16.92717,17.23528,-25.49118,-26.21443,15.1355,-5.388311,-26.14354,15.1355,
638524908570940307,326048,28.35705,16.89473,17.20225,-25.43556,-26.15723,15.10248,-5.376554,-26.08649,15.10248,
638524908571060309,326059,28.30176,16.86179,17.16871,-25.37908,-26.09914,15.06894,-5.364615,-26.02856,15.06894,
638524908571170315,326070,28.2464,16.82881,17.13513,-25.32252,-26.04098,15.03536,-5.35266,-25.97056,15.03536,
638524908571275882,326081,28.19195,16.79637,17.1021,-25.26688,-25.98377,15.00233,-5.3409,-25.9135,15.00233,
638524908571385876,326092,28.1368,16.76352,17.06864,-25.21054,-25.92582,14.96887,-5.32899,-25.85571,14.96887,
638524908571495877,326103,28.082,16.73087,17.0354,-25.15455,-25.86825,14.93563,-5.317155,-25.7983,14.93563,
638524908571615981,326114,28.02761,16.69846,17.00241,-25.09898,-25.8111,14.90264,-5.305409,-25.7413,14.90264,
638524908571725989,326125,27.9719,16.66527,16.96861,-25.04206,-25.75256,14.86884,-5.293376,-25.68292,14.86884,
638524908571835991,326136,27.91768,16.63297,16.93572,-24.98666,-25.69559,14.83595,-5.281667,-25.62611,14.83595,
638524908571945985,326148,27.86228,16.59996,16.90211,-24.93007,-25.6374,14.80234,-5.269704,-25.56807,14.80234,
638524908572056424,326159,27.80665,16.56681,16.86836,-24.87322,-25.57894,14.76859,-5.257689,-25.50977,14.76859,
638524908572166436,326170,27.75241,16.5345,16.83546,-24.81781,-25.52195,14.73569,-5.245975,-25.45294,14.73569,
638524908572276421,326181,27.69743,16.50174,16.8021,-24.76163,-25.46418,14.70234,-5.234101,-25.39532,14.70234,
638524908572386430,326192,27.64325,16.46947,16.76924,-24.70629,-25.40726,14.66947,-5.222401,-25.33856,14.66947,
638524908572496434,326203,27.58746,16.43622,16.73539,-24.64928,-25.34864,14.63562,-5.210351,-25.28009,14.63562,
638524908572606424,326214,27.53272,16.40361,16.70219,-24.59335,-25.29113,14.60242,-5.198529,-25.22273,14.60242,
638524908572726432,326225,27.47818,16.37112,16.6691,-24.53763,-25.23382,14.56933,-5.186751,-25.16559,14.56933,
638524908572836436,326236,27.42261,16.33801,16.63539,-24.48086,-25.17544,14.53562,-5.17475,-25.10736,14.53562,
638524908572946423,326247,27.36842,16.30573,16.60252,-24.42549,-25.1185,14.50275,-5.163047,-25.05058,14.50275,
638524908573056547,326259,27.31322,16.27284,16.56903,-24.3691,-25.06051,14.46926,-5.151126,-24.99274,14.46926,
638524908573166546,326270,27.25769,16.23975,16.53535,-24.31236,-25.00216,14.43558,-5.139133,-24.93455,14.43558,
638524908573276543,326281,27.20372,16.2076,16.50261,-24.25723,-24.94546,14.40284,-5.127478,-24.878,14.40284,
638524908573386535,326292,27.14869,16.17482,16.46923,-24.20101,-24.88765,14.36946,-5.115594,-24.82034,14.36946,
638524908573496552,326303,27.09338,16.14186,16.43567,-24.1445,-24.82953,14.3359,-5.103649,-24.76239,14.3359,
638524908573606660,326314,27.03863,16.10924,16.40246,-24.08855,-24.772,14.30269,-5.091824,-24.70501,14.30269,
638524908573716662,326325,26.9832,16.07622,16.36883,-24.03192,-24.71376,14.26906,-5.079854,-24.64693,14.26906,
638524908573826657,326336,26.92856,16.04366,16.33568,-23.97609,-24.65635,14.23591,-5.068052,-24.58967,14.23591,
638524908573946672,326347,26.87409,16.01121,16.30264,-23.92045,-24.59913,14.20288,-5.05629,-24.53261,14.20288,
638524908574053632,326359,26.81904,15.97841,16.26925,-23.8642,-24.54129,14.16948,-5.044401,-24.47492,14.16948,
638524908574163635,326370,26.76381,15.94551,16.23574,-23.80777,-24.48326,14.13597,-5.032473,-24.41705,14.13597,
638524908574273617,326381,26.70866,15.91265,16.20229,-23.75142,-24.42531,14.10252,-5.020563,-24.35926,14.10252,
