time(100ns),time_stamp(ms),object1.x,object1.y,object1.z,object2.x,object2.y,object2.z,object3.x,object3.y,object3.z,AvoidObject1.x,AvoidObject1.y,AvoidObject1.z,AvoidObject2.x,AvoidObject2.y,AvoidObject2.z,AvoidObject3.x,AvoidObject3.y,AvoidObject3.z,
638525001652987365,1390135,10.66373,-11.90791,17.46849,-18.99208,-14.76522,13.36942,-4.489142,22.47081,16.01969,-24.68902,-7.304962,20,1.339474,14.83027,20,-23.50008,-32.12924,20,
638525001653057366,1390143,10.66373,-11.90791,17.46849,-18.99208,-14.76522,13.36942,-4.489142,22.47081,16.01969,-24.63272,-7.288304,19.95439,1.336419,14.79645,19.95439,-23.44649,-32.05597,19.95439,
638525001653157374,1390152,10.66373,-11.90791,17.46849,-18.99208,-14.76522,13.36942,-4.489142,22.47081,16.01969,-24.60508,-7.280128,19.932,1.33492,14.77985,19.932,-23.42019,-32.02001,19.932,
638525001653267355,1390163,10.66373,-11.90791,17.46849,-18.99208,-14.76522,13.36942,-4.489142,22.47081,16.01969,-24.57014,-7.269788,19.9037,1.333024,14.75886,19.9037,-23.38693,-31.97453,19.9037,
638525001653377363,1390174,10.66373,-11.90791,17.46849,-18.99208,-14.76522,13.36942,-4.489142,22.47081,16.01969,-24.52943,-7.257743,19.87072,1.330815,14.73441,19.87072,-23.34818,-31.92156,19.87072,
638525001653487362,1390185,10.66373,-11.90791,17.46849,-18.99208,-14.76522,13.36942,-4.489142,22.47081,16.01969,-24.48854,-7.245645,19.8376,1.328597,14.70984,19.8376,-23.30926,-31.86835,19.8376,
638525001653597355,1390197,10.66373,-11.90791,17.46849,-18.99208,-14.76522,13.36942,-4.489142,22.47081,16.01969,-24.4473,-7.233441,19.80419,1.326359,14.68507,19.80419,-23.27,-31.81467,19.80419,
638525001653707359,1390208,10.66373,-11.90791,17.46849,-18.99208,-14.76522,13.36942,-4.489142,22.47081,16.01969,-24.40553,-7.221083,19.77035,1.324093,14.65998,19.77035,-23.23024,-31.76032,19.77035,
638525001653817371,1390219,10.66373,-11.90791,17.46849,-18.99208,-14.76522,13.36942,-4.489142,22.47081,16.01969,-24.36513,-7.20913,19.73762,1.321901,14.63572,19.73762,-23.19179,-31.70775,19.73762,
638525001653927358,1390230,10.66373,-11.90791,17.46849,-18.99208,-14.76522,13.36942,-4.489142,22.47081,16.01969,-24.32332,-7.19676,19.70375,1.319633,14.6106,19.70375,-23.152,-31.65334,19.70375,
638525001654047354,1390241,10.66373,-11.90791,17.46849,-18.99208,-14.76522,13.36942,-4.489142,22.47081,16.01969,-24.28244,-7.184663,19.67064,1.317415,14.58605,19.67064,-23.11308,-31.60013,19.67064,
638525001654147371,1390252,10.66373,-11.90791,17.46849,-18.99208,-14.76522,13.36942,-4.489142,22.47081,16.01969,-24.24056,-7.172273,19.63671,1.315143,14.56089,19.63671,-23.07322,-31.54564,19.63671,
638525001654267357,1390263,10.66373,-11.90791,17.46849,-18.99208,-14.76522,13.36942,-4.489142,22.47081,16.01969,-24.20045,-7.160405,19.60422,1.312966,14.5368,19.60422,-23.03504,-31.49344,19.60422,
638525001654377352,1390274,10.66373,-11.90791,17.46849,-18.99208,-14.76522,13.36942,-4.489142,22.47081,16.01969,-24.15937,-7.14825,19.57094,1.310738,14.51212,19.57094,-22.99594,-31.43998,19.57094,
638525001654487355,1390285,10.66373,-11.90791,17.46849,-18.99208,-14.76522,13.36942,-4.489142,22.47081,16.01969,-24.11833,-7.136108,19.5377,1.308511,14.48747,19.5377,-22.95688,-31.38658,19.5377,
638525001654597356,1390296,10.66373,-11.90791,17.46849,-18.99208,-14.76522,13.36942,-4.489142,22.47081,16.01969,-24.07703,-7.123887,19.50424,1.306271,14.46266,19.50424,-22.91756,-31.33282,19.50424,
638525001654707363,1390308,10.66373,-11.90791,17.46849,-18.99208,-14.76522,13.36942,-4.489142,22.47081,16.01969,-24.03574,-7.11167,19.47079,1.30403,14.43786,19.47079,-22.87826,-31.27909,19.47079,
638525001654817375,1390319,10.66373,-11.90791,17.46849,-18.99208,-14.76522,13.36942,-4.489142,22.47081,16.01969,-23.99457,-7.099491,19.43744,1.301797,14.41314,19.43744,-22.83908,-31.22552,19.43744,
638525001654927369,1390330,10.66373,-11.90791,17.46849,-18.99208,-14.76522,13.36942,-4.489142,22.47081,16.01969,-23.95342,-7.087315,19.40411,1.299564,14.38842,19.40411,-22.79991,-31.17197,19.40411,
638525001655037367,1390341,10.66373,-11.90791,17.46849,-18.99208,-14.76522,13.36942,-4.489142,22.47081,16.01969,-23.91254,-7.075221,19.371,1.297347,14.36386,19.371,-22.761,-31.11877,19.371,
638525001655157352,1390352,10.66373,-11.90791,17.46849,-18.99208,-14.76522,13.36942,-4.489142,22.47081,16.01969,-23.87089,-7.062895,19.33725,1.295086,14.33884,19.33725,-22.72135,-31.06456,19.33725,
638525001655267358,1390363,10.66373,-11.90791,17.46849,-18.99208,-14.76522,13.36942,-4.489142,22.47081,16.01969,-23.82936,-7.05061,19.30362,1.292834,14.3139,19.30362,-22.68183,-31.01053,19.30362,
638525001655377358,1390374,10.66373,-11.90791,17.46849,-18.99208,-14.76522,13.36942,-4.489142,22.47081,16.01969,-23.78914,-7.038708,19.27103,1.290651,14.28974,19.27103,-22.64355,-30.95818,19.27103,
638525001655487361,1390386,10.66373,-11.90791,17.46849,-18.99208,-14.76522,13.36942,-4.489142,22.47081,16.01969,-23.74786,-7.026495,19.23759,1.288412,14.26495,19.23759,-22.60425,-30.90446,19.23759,
638525001655597348,1390396,10.66373,-11.90791,17.46849,-18.99208,-14.76522,13.36942,-4.489142,22.47081,16.01969,-23.70547,-7.01395,19.20325,1.286111,14.23948,19.20325,-22.5639,-30.84929,19.20325,
638525001655707358,1390408,10.66373,-11.90791,17.46849,-18.99208,-14.76522,13.36942,-4.489142,22.47081,16.01969,-23.66585,-7.00223,19.17116,1.283962,14.21569,19.17116,-22.5262,-30.79774,19.17116,
638525001655817363,1390419,10.66373,-11.90791,17.46849,-18.99208,-14.76522,13.36942,-4.489142,22.47081,16.01969,-23.62429,-6.989932,19.13749,1.281707,14.19072,19.13749,-22.48663,-30.74365,19.13749,
638525001655927377,1390430,10.66373,-11.90791,17.46849,-18.99208,-14.76522,13.36942,-4.489142,22.47081,16.01969,-23.58334,-6.977815,19.10431,1.279486,14.16612,19.10431,-22.44765,-30.69036,19.10431,
638525001656047358,1390441,10.66373,-11.90791,17.46849,-18.99208,-14.76522,13.36942,-4.489142,22.47081,16.01969,-23.54235,-6.965687,19.07111,1.277262,14.1415,19.07111,-22.40863,-30.63701,19.07111,
638525001656147357,1390452,10.66373,-11.90791,17.46849,-18.99208,-14.76522,13.36942,-4.489142,22.47081,16.01969,-23.50036,-6.953264,19.0371,1.274984,14.11628,19.0371,-22.36867,-30.58237,19.0371,
638525001656267361,1390463,10.66373,-11.90791,17.46849,-18.99208,-14.76522,13.36942,-4.489142,22.47081,16.01969,-23.46026,-6.941401,19.00462,1.272809,14.0922,19.00462,-22.33051,-30.5302,19.00462,
638525001656377353,1390474,10.66373,-11.90791,17.46849,-18.99208,-14.76522,13.36942,-4.489142,22.47081,16.01969,-23.41866,-6.929091,18.97091,1.270551,14.0672,18.97091,-22.2909,-30.47606,18.97091,
638525001656487366,1390485,10.66373,-11.90791,17.46849,-18.99208,-14.76522,13.36942,-4.489142,22.47081,16.01969,-23.37815,-6.917105,18.9381,1.268353,14.04287,18.9381,-22.25235,-30.42334,18.9381,
638525001656597353,1390496,10.66373,-11.90791,17.46849,-18.99208,-14.76522,13.36942,-4.489142,22.47081,16.01969,-23.33659,-6.904808,18.90443,1.266098,14.01791,18.90443,-22.21279,-30.36925,18.90443,
638525001656707349,1390508,10.66373,-11.90791,17.46849,-18.99208,-14.76522,13.36942,-4.489142,22.47081,16.01969,-23.29497,-6.892495,18.87072,1.263841,13.99291,18.87072,-22.17317,-30.31509,18.87072,
638525001656817353,1390519,10.66373,-11.90791,17.46849,-18.99208,-14.76522,13.36942,-4.489142,22.47081,16.01969,-23.25258,-6.879951,18.83637,1.26154,13.96744,18.83637,-22.13282,-30.25992,18.83637,
638525001656937361,1390530,10.66373,-11.90791,17.46849,-18.99208,-14.76522,13.36942,-4.489142,22.47081,16.01969,-23.21189,-6.867914,18.80342,1.259334,13.94301,18.80342,-22.0941,-30.20698,18.80342,
638525001657047372,1390542,10.66373,-11.90791,17.46849,-18.99208,-14.76522,13.36942,-4.489142,22.47081,16.01969,-23.17001,-6.85552,18.76949,1.257061,13.91784,18.76949,-22.05423,-30.15247,18.76949,
638525001657157348,1390553,10.66373,-11.90791,17.46849,-18.99208,-14.76522,13.36942,-4.489142,22.47081,16.01969,-23.12748,-6.842938,18.73504,1.254754,13.8923,18.73504,-22.01375,-30.09713,18.73504,
638525001657267351,1390564,10.66373,-11.90791,17.46849,-18.99208,-14.76522,13.36942,-4.489142,22.47081,16.01969,-23.08681,-6.830905,18.70209,1.252547,13.86787,18.70209,-21.97504,-30.0442,18.70209,
638525001657387370,1390575,10.66373,-11.90791,17.46849,-18.99208,-14.76522,13.36942,-4.489142,22.47081,16.01969,-23.04502,-6.81854,18.66824,1.25028,13.84277,18.66824,-21.93526,-29.98982,18.66824,
638525001657497350,1390586,10.66373,-11.90791,17.46849,-18.99208,-14.76522,13.36942,-4.489142,22.47081,16.01969,-23.00343,-6.806234,18.63455,1.248024,13.81779,18.63455,-21.89568,-29.9357,18.63455,
638525001657607349,1390598,10.66373,-11.90791,17.46849,-18.99208,-14.76522,13.36942,-4.489142,22.47081,16.01969,-22.96193,-6.793955,18.60093,1.245772,13.79286,18.60093,-21.85617,-29.88169,18.60093,
638525001657717357,1390609,10.66373,-11.90791,17.46849,-18.99208,-14.76522,13.36942,-4.489142,22.47081,16.01969,-22.92026,-6.781625,18.56717,1.243511,13.76783,18.56717,-21.81651,-29.82746,18.56717,
638525001657837358,1390620,10.66373,-11.90791,17.46849,-18.99208,-14.76522,13.36942,-4.489142,22.47081,16.01969,-22.87832,-6.769217,18.5332,1.241236,13.74264,18.5332,-21.77659,-29.77288,18.5332,
638525001657947355,1390631,10.66373,-11.90791,17.46849,-18.99208,-14.76522,13.36942,-4.489142,22.47081,16.01969,-22.83657,-6.756863,18.49938,1.23897,13.71756,18.49938,-21.73685,-29.71855,18.49938,
638525001658057366,1390642,10.66373,-11.90791,17.46849,-18.99208,-14.76522,13.36942,-4.489142,22.47081,16.01969,-22.79558,-6.744734,18.46617,1.236746,13.69293,18.46617,-21.69783,-29.6652,18.46617,
638525001658167351,1390653,10.66373,-11.90791,17.46849,-18.99208,-14.76522,13.36942,-4.489142,22.47081,16.01969,-22.75425,-6.732506,18.43269,1.234504,13.66811,18.43269,-21.65849,-29.61142,18.43269,
638525001658277368,1390665,10.66373,-11.90791,17.46849,-18.99208,-14.76522,13.36942,-4.489142,22.47081,16.01969,-22.71306,-6.720319,18.39932,1.232269,13.64337,18.39932,-21.61928,-29.55782,18.39932,
638525001658387362,1390676,10.66373,-11.90791,17.46849,-18.99208,-14.76522,13.36942,-4.489142,22.47081,16.01969,-22.67121,-6.707937,18.36543,1.229999,13.61823,18.36543,-21.57945,-29.50336,18.36543,
638525001658497357,1390687,10.66373,-11.90791,17.46849,-18.99208,-14.76522,13.36942,-4.489142,22.47081,16.01969,-22.63088,-6.696003,18.33275,1.227811,13.594,18.33275,-21.54106,-29.45087,18.33275,
638525001658607349,1390698,10.66373,-11.90791,17.46849,-18.99208,-14.76522,13.36942,-4.489142,22.47081,16.01969,-22.58955,-6.683775,18.29927,1.225569,13.56918,18.29927,-21.50172,-29.39709,18.29927,
638525001658727374,1390709,10.66373,-11.90791,17.46849,-18.99208,-14.76522,13.36942,-4.489142,22.47081,16.01969,-22.54867,-6.67168,18.26616,1.223351,13.54462,18.26616,-21.46281,-29.34389,18.26616,
638525001658837355,1390720,10.66373,-11.90791,17.46849,-18.99208,-14.76522,13.36942,-4.489142,22.47081,16.01969,-22.50765,-6.659543,18.23293,1.221126,13.51998,18.23293,-21.42377,-29.2905,18.23293,
638525001658947362,1390731,10.66373,-11.90791,17.46849,-18.99208,-14.76522,13.36942,-4.489142,22.47081,16.01969,-22.46633,-6.647316,18.19945,1.218884,13.49516,18.19945,-21.38444,-29.23673,18.19945,
638525001659057362,1390742,10.66373,-11.90791,17.46849,-18.99208,-14.76522,13.36942,-4.489142,22.47081,16.01969,-22.42502,-6.635096,18.16599,1.216643,13.47035,18.16599,-21.34512,-29.18298,18.16599,
638525001659167362,1390754,10.66373,-11.90791,17.46849,-18.99208,-14.76522,13.36942,-4.489142,22.47081,16.01969,-22.38383,-6.622907,18.13262,1.214408,13.44561,18.13262,-21.30591,-29.12937,18.13262,
638525001659277351,1390765,10.66373,-11.90791,17.46849,-18.99208,-14.76522,13.36942,-4.489142,22.47081,16.01969,-22.34326,-6.610903,18.09975,1.212207,13.42124,18.09975,-21.26729,-29.07657,18.09975,
638525001659387358,1390776,10.66373,-11.90791,17.46849,-18.99208,-14.76522,13.36942,-4.489142,22.47081,16.01969,-22.30184,-6.598649,18.0662,1.20996,13.39636,18.0662,-21.22787,-29.02267,18.0662,
638525001659497356,1390787,10.66373,-11.90791,17.46849,-18.99208,-14.76522,13.36942,-4.489142,22.47081,16.01969,-22.2609,-6.586536,18.03304,1.207739,13.37177,18.03304,-21.1889,-28.9694,18.03304,
638525001659617355,1390798,10.66373,-11.90791,17.46849,-18.99208,-14.76522,13.36942,-4.489142,22.47081,16.01969,-22.21973,-6.574355,17.99969,1.205505,13.34704,17.99969,-21.14972,-28.91582,17.99969,
638525001659727358,1390809,10.66373,-11.90791,17.46849,-18.99208,-14.76522,13.36942,-4.489142,22.47081,16.01969,-22.1779,-6.561976,17.9658,1.203236,13.32191,17.9658,-21.10989,-28.86138,17.9658,
638525001659837369,1390820,10.66373,-11.90791,17.46849,-18.99208,-14.76522,13.36942,-4.489142,22.47081,16.01969,-22.13725,-6.549951,17.93288,1.201031,13.2975,17.93288,-21.07121,-28.80849,17.93288,
638525001659947371,1390832,10.66373,-11.90791,17.46849,-18.99208,-14.76522,13.36942,-4.489142,22.47081,16.01969,-22.09643,-6.537872,17.89981,1.198816,13.27298,17.89981,-21.03235,-28.75536,17.89981,
638525001660057354,1390842,10.66373,-11.90791,17.46849,-18.99208,-14.76522,13.36942,-4.489142,22.47081,16.01969,-22.05446,-6.525454,17.86581,1.196539,13.24777,17.86581,-20.9924,-28.70074,17.86581,
638525001660167364,1390853,10.66373,-11.90791,17.46849,-18.99208,-14.76522,13.36942,-4.489142,22.47081,16.01969,-22.0136,-6.513364,17.83271,1.194322,13.22322,17.83271,-20.95351,-28.64757,17.83271,
638525001660277353,1390864,10.66373,-11.90791,17.46849,-18.99208,-14.76522,13.36942,-4.489142,22.47081,16.01969,-21.97301,-6.501355,17.79983,1.19212,13.19884,17.79983,-20.91488,-28.59475,17.79983,
638525001660397377,1390876,10.66373,-11.90791,17.46849,-18.99208,-14.76522,13.36942,-4.489142,22.47081,16.01969,-21.93188,-6.489185,17.76651,1.189888,13.17414,17.76651,-20.87572,-28.54122,17.76651,
638525001660497354,1390887,10.66373,-11.90791,17.46849,-18.99208,-14.76522,13.36942,-4.489142,22.47081,16.01969,-21.88984,-6.476746,17.73245,1.187608,13.14888,17.73245,-20.83571,-28.48651,17.73245,
638525001660607372,1390898,10.66373,-11.90791,17.46849,-18.99208,-14.76522,13.36942,-4.489142,22.47081,16.01969,-21.84901,-6.464667,17.69938,1.185393,13.12436,17.69938,-20.79685,-28.43339,17.69938,
638525001660727370,1390909,10.66373,-11.90791,17.46849,-18.99208,-14.76522,13.36942,-4.489142,22.47081,16.01969,-21.80815,-6.452575,17.66628,1.183176,13.09981,17.66628,-20.75795,-28.3802,17.66628,
638525001660867338,1390923,10.66373,-11.90791,17.46849,-18.99208,-14.76522,13.36942,-4.489142,22.47081,16.01969,-21.76688,-6.440366,17.63285,1.180937,13.07503,17.63285,-20.71867,-28.3265,17.63285,
638525001660977361,1390934,10.66373,-11.90791,17.46849,-18.99208,-14.76522,13.36942,-4.489142,22.47081,16.01969,-21.71496,-6.425004,17.59079,1.17812,13.04384,17.59079,-20.66925,-28.25893,17.59079,
638525001661087346,1390945,10.66373,-11.90791,17.46849,-18.99208,-14.76522,13.36942,-4.489142,22.47081,16.01969,-21.67417,-6.412934,17.55774,1.175907,13.01934,17.55774,-20.63042,-28.20585,17.55774,
638525001661237363,1390960,10.66373,-11.90791,17.46849,-18.99208,-14.76522,13.36942,-4.489142,22.47081,16.01969,-21.6327,-6.400664,17.52415,1.173657,12.99443,17.52415,-20.59095,-28.15188,17.52415,
638525001661287366,1390966,10.66373,-11.90791,17.46849,-18.99208,-14.76522,13.36942,-4.489142,22.47081,16.01969,-21.57715,-6.384228,17.47915,1.170643,12.96106,17.47915,-20.53808,-28.07959,17.47915,
638525001661357368,1390972,10.66373,-11.90791,17.46849,-18.99208,-14.76522,13.36942,-4.489142,22.47081,16.01969,-21.55639,-6.378084,17.46233,1.169516,12.94859,17.46233,-20.51831,-28.05257,17.46233,
638525001661447365,1390982,10.66373,-11.90791,17.46849,-18.99208,-14.76522,13.36942,-4.489142,22.47081,16.01969,-21.53352,-6.371319,17.44381,1.168276,12.93485,17.44381,-20.49655,-28.02282,17.44381,
638525001661567352,1390993,10.66373,-11.90791,17.46849,-18.99208,-14.76522,13.36942,-4.489142,22.47081,16.01969,-21.49684,-6.360464,17.41409,1.166286,12.91282,17.41409,-20.46163,-27.97507,17.41409,
638525001661677351,1391004,10.66373,-11.90791,17.46849,-18.99208,-14.76522,13.36942,-4.489142,22.47081,16.01969,-21.45526,-6.348163,17.38041,1.16403,12.88784,17.38041,-20.42206,-27.92097,17.38041,
638525001661787358,1391015,10.66373,-11.90791,17.46849,-18.99208,-14.76522,13.36942,-4.489142,22.47081,16.01969,-21.41473,-6.336172,17.34758,1.161831,12.8635,17.34758,-20.38348,-27.86823,17.34758,
638525001661897360,1391026,10.66373,-11.90791,17.46849,-18.99208,-14.76522,13.36942,-4.489142,22.47081,16.01969,-21.37361,-6.324004,17.31427,1.1596,12.8388,17.31427,-20.34434,-27.81471,17.31427,
638525001662007350,1391037,10.66373,-11.90791,17.46849,-18.99208,-14.76522,13.36942,-4.489142,22.47081,16.01969,-21.3324,-6.31181,17.28088,1.157364,12.81404,17.28088,-20.30511,-27.76108,17.28088,
638525001662117357,1391049,10.66373,-11.90791,17.46849,-18.99208,-14.76522,13.36942,-4.489142,22.47081,16.01969,-21.29159,-6.299737,17.24783,1.15515,12.78954,17.24783,-20.26627,-27.70798,17.24783,
638525001662227354,1391060,10.66373,-11.90791,17.46849,-18.99208,-14.76522,13.36942,-4.489142,22.47081,16.01969,-21.24987,-6.287391,17.21403,1.152886,12.76447,17.21403,-20.22655,-27.65368,17.21403,
638525001662337354,1391071,10.66373,-11.90791,17.46849,-18.99208,-14.76522,13.36942,-4.489142,22.47081,16.01969,-21.20891,-6.275274,17.18085,1.150664,12.73987,17.18085,-20.18757,-27.60038,17.18085,
638525001662447349,1391082,10.66373,-11.90791,17.46849,-18.99208,-14.76522,13.36942,-4.489142,22.47081,16.01969,-21.16798,-6.263162,17.14769,1.148443,12.71528,17.14769,-20.14861,-27.54711,17.14769,
638525001662557359,1391093,10.66373,-11.90791,17.46849,-18.99208,-14.76522,13.36942,-4.489142,22.47081,16.01969,-21.12667,-6.250938,17.11423,1.146202,12.69047,17.11423,-20.10928,-27.49335,17.11423,
638525001662677355,1391104,10.66373,-11.90791,17.46849,-18.99208,-14.76522,13.36942,-4.489142,22.47081,16.01969,-21.08574,-6.238829,17.08107,1.143982,12.66588,17.08107,-20.07033,-27.44009,17.08107,
638525001662787356,1391115,10.66373,-11.90791,17.46849,-18.99208,-14.76522,13.36942,-4.489142,22.47081,16.01969,-21.04465,-6.226673,17.04779,1.141753,12.6412,17.04779,-20.03122,-27.38663,17.04779,
638525001662897360,1391126,10.66373,-11.90791,17.46849,-18.99208,-14.76522,13.36942,-4.489142,22.47081,16.01969,-21.00333,-6.214447,17.01432,1.139511,12.61638,17.01432,-19.99189,-27.33285,17.01432,
638525001663007358,1391137,10.66373,-11.90791,17.46849,-18.99208,-14.76522,13.36942,-4.489142,22.47081,16.01969,-20.96171,-6.202131,16.9806,1.137253,12.59138,16.9806,-19.95227,-27.27868,16.9806,
638525001663117351,1391149,10.66373,-11.90791,17.46849,-18.99208,-14.76522,13.36942,-4.489142,22.47081,16.01969,-20.92099,-6.190084,16.94761,1.135044,12.56693,16.94761,-19.91351,-27.22569,16.94761,
638525001663227352,1391160,10.66373,-11.90791,17.46849,-18.99208,-14.76522,13.36942,-4.489142,22.47081,16.01969,-20.87966,-6.177856,16.91413,1.132802,12.5421,16.91413,-19.87418,-27.17191,16.91413,
638525001663337357,1391171,10.66373,-11.90791,17.46849,-18.99208,-14.76522,13.36942,-4.489142,22.47081,16.01969,-20.83772,-6.165447,16.88016,1.130527,12.51691,16.88016,-19.83426,-27.11734,16.88016,
638525001663447349,1391182,10.66373,-11.90791,17.46849,-18.99208,-14.76522,13.36942,-4.489142,22.47081,16.01969,-20.79772,-6.153609,16.84775,1.128356,12.49288,16.84775,-19.79618,-27.06527,16.84775,
638525001663557351,1391193,10.66373,-11.90791,17.46849,-18.99208,-14.76522,13.36942,-4.489142,22.47081,16.01969,-20.75654,-6.141425,16.81439,1.126122,12.46814,16.81439,-19.75698,-27.01168,16.81439,
638525001663677353,1391204,10.66373,-11.90791,17.46849,-18.99208,-14.76522,13.36942,-4.489142,22.47081,16.01969,-20.71538,-6.129248,16.78105,1.123889,12.44342,16.78105,-19.7178,-26.95812,16.78105,
638525001663787369,1391215,10.66373,-11.90791,17.46849,-18.99208,-14.76522,13.36942,-4.489142,22.47081,16.01969,-20.67452,-6.117158,16.74795,1.121672,12.41888,16.74795,-19.67891,-26.90495,16.74795,
638525001663897372,1391226,10.66373,-11.90791,17.46849,-18.99208,-14.76522,13.36942,-4.489142,22.47081,16.01969,-20.633,-6.104872,16.71432,1.119419,12.39393,16.71432,-19.63939,-26.85091,16.71432,
