time(100ns),time_stamp(ms),object1.x,object1.y,object1.z,
638549095956795620,488482,0,5,10,
638549095956855620,488488,0.03724834,4.926704,10,
638549095956945623,488497,0.05189261,4.897888,10,
638549095957055614,488507,0.07144405,4.859416,10,
638549095957165785,488518,0.09500382,4.813056,10,
638549095957270851,488529,0.1197565,4.764348,10,
638549095957390849,488541,0.1446928,4.715279,10,
638549095957495952,488551,0.1705862,4.664327,10,
638549095957605965,488562,0.1949488,4.616387,10,
638549095957715961,488574,0.2206875,4.56574,10,
638549095957825960,488584,0.2455153,4.516884,10,
638549095957945964,488596,0.2706424,4.46744,10,
638549095958065960,488608,0.2969447,4.415684,10,
638549095958166160,488619,0.3240704,4.362307,10,
638549095958266438,488629,0.3481317,4.31496,10,
638549095958386437,488640,0.3711523,4.269661,10,
638549095958491537,488651,0.396255,4.220265,10,
638549095958601536,488662,0.4212914,4.170999,10,
638549095958721542,488674,0.4467089,4.120984,10,
638549095958821531,488684,0.4720147,4.071188,10,
638549095958941535,488696,0.4965751,4.022859,10,
638549095959056603,488707,0.5225233,3.971799,10,
638549095959156792,488718,0.5487567,3.920178,10,
638549095959266801,488729,0.5723013,3.873848,10,
638549095959386796,488740,0.5973965,3.824466,10,
638549095959496802,488751,0.6232378,3.773617,10,
638549095959606806,488762,0.6476803,3.72552,10,
638549095959721904,488774,0.6731719,3.675359,10,
638549095959831900,488785,0.6985849,3.625352,10,
638549095959941888,488796,0.7237971,3.57574,10,
638549095960051897,488807,0.7485271,3.527077,10,
638549095960161897,488818,0.7740103,3.476933,10,
638549095960271890,488829,0.7988082,3.428136,10,
638549095960391895,488840,0.8241666,3.378237,10,
638549095960492095,488851,0.8497834,3.327829,10,
638549095960612096,488863,0.8750575,3.278096,10,
638549095960722103,488874,0.9004696,3.228091,10,
638549095960832104,488885,0.9268337,3.176213,10,
638549095960952095,488897,0.9518693,3.126949,10,
638549095961062092,488908,0.9774979,3.076518,10,
638549095961172090,488919,1.004039,3.02429,10,
638549095961282095,488930,1.028084,2.976976,10,
638549095961402085,488942,1.054118,2.925747,10,
638549095961507162,488953,1.080067,2.874686,10,
638549095961627153,488964,1.105162,2.825306,10,
638549095961742274,488976,1.130771,2.774914,10,
638549095961852284,488987,1.157318,2.722674,10,
638549095961962278,488998,1.182019,2.674068,10,
638549095962082279,489010,1.207336,2.624251,10,
638549095962182266,489020,1.233587,2.572596,10,
638549095962302277,489032,1.257826,2.5249,10,
638549095962412274,489043,1.283454,2.474469,10,
638549095962517404,489054,1.308911,2.424376,10,
638549095962627393,489065,1.333538,2.375916,10,
638549095962747407,489076,1.358971,2.32587,10,
638549095962857396,489087,1.384586,2.275467,10,
638549095962962491,489098,1.409111,2.227206,10,
638549095963082490,489110,1.434637,2.176977,10,
638549095963192493,489120,1.460087,2.126899,10,
638549095963302493,489131,1.484548,2.078764,10,
638549095963412500,489143,1.509758,2.029157,10,
638549095963517629,489154,1.535104,1.979283,10,
638549095963627627,489165,1.560023,1.930248,10,
638549095963747607,489176,1.585339,1.880431,10,
638549095963857621,489188,1.610929,1.830077,10,
638549095963962725,489198,1.636113,1.780521,10,
638549095964082727,489210,1.661205,1.731145,10,
638549095964182729,489220,1.686588,1.681198,10,
638549095964302720,489232,1.71107,1.633023,10,
638549095964412723,489243,1.736588,1.58281,10,
638549095964517817,489254,1.762199,1.532413,10,
638549095964627817,489265,1.786349,1.484891,10,
638549095964747819,489276,1.811648,1.435111,10,
638549095964847818,489287,1.837777,1.383695,10,
638549095964962933,489298,1.86177,1.336481,10,
638549095965082939,489310,1.887285,1.286275,10,
638549095965182934,489320,1.913057,1.235562,10,
638549095965298025,489331,1.937554,1.187358,10,
638549095965408024,489343,1.962669,1.137937,10,
638549095965518027,489354,1.988364,1.087375,10,
638549095965628030,489365,2.012777,1.039337,10,
638549095965748017,489376,2.038195,0.9893208,10,
638549095965848015,489387,2.063783,0.9389701,10,
638549095965968028,489398,2.088227,0.8908701,10,
638549095966078021,489409,2.113905,0.8403411,10,
638549095966183131,489420,2.139027,0.7909079,10,
638549095966298207,489431,2.163873,0.7420158,10,
638549095966413335,489443,2.189183,0.6922121,10,
638549095966518452,489454,2.214973,0.6414638,10,
638549095966628454,489465,2.239486,0.5932283,10,
638549095966748449,489477,2.264487,0.5440335,10,
638549095966848455,489487,2.29116,0.4915471,10,
638549095966968454,489499,2.314791,0.4450464,10,
638549095967078451,489510,2.341389,0.3927073,10,
638549095967188462,489521,2.365974,0.3443313,10,
638549095967298460,489532,2.39101,0.2950664,10,
638549095967408451,489543,2.416224,0.2454495,10,
638549095967518457,489554,2.441644,0.1954303,10,
638549095967628472,489565,2.466108,0.1472902,10,
638549095967748457,489576,2.491153,0.0980072,10,
638549095967848451,489587,2.517234,0.04668808,10,
638549095967963911,489598,2.541101,-0.0002765656,10,
638549095968073906,489609,2.566328,-0.04991865,10,
638549095968183916,489620,2.592205,-0.1008387,10,
638549095968293941,489632,2.616769,-0.1491737,10,
638549095968413907,489643,2.642339,-0.1994896,10,
638549095968517149,489654,2.667641,-0.2492771,10,
638549095968627166,489665,2.692274,-0.297749,10,
638549095968745907,489676,2.717256,-0.3469076,10,
638549095968852443,489687,2.742871,-0.3973126,10,
638549095968962447,489698,2.768079,-0.4469156,10,
638549095969072430,489709,2.79304,-0.4960332,10,
638549095969182434,489720,2.81868,-0.5464859,10,
638549095969297529,489731,2.84327,-0.594873,10,
638549095969407525,489743,2.868292,-0.6441102,10,
638549095969516498,489753,2.893837,-0.6943769,10,
638549095969626499,489765,2.918435,-0.7427788,10,
638549095969746494,489776,2.943998,-0.7930808,10,
638549095969846497,489787,2.969709,-0.8436742,10,
638549095969966501,489798,2.993931,-0.8913379,10,
638549095970076500,489809,3.019728,-0.9421005,10,
638549095970186511,489820,3.044814,-0.9914632,10,
638549095970301574,489832,3.069859,-1.040745,10,
638549095970416685,489843,3.095608,-1.091413,10,
638549095970516694,489854,3.122199,-1.143738,10,
638549095970626686,489865,3.145391,-1.189375,10,
638549095970746686,489876,3.170486,-1.238757,10,
638549095970856682,489887,3.196859,-1.290652,10,
638549095970966689,489898,3.221199,-1.338547,10,
638549095971076688,489909,3.245993,-1.387336,10,
638549095971186931,489920,3.271488,-1.437503,10,
638549095971296927,489931,3.295689,-1.485125,10,
638549095971406922,489942,3.320966,-1.534864,10,
638549095971516936,489953,3.346641,-1.585386,10,
638549095971626932,489964,3.371342,-1.633992,10,
638549095971746937,489976,3.396576,-1.683647,10,
638549095971846921,489987,3.422571,-1.734798,10,
638549095971966935,489998,3.446903,-1.782678,10,
638549095972076920,490009,3.472646,-1.833333,10,
638549095972176927,490020,3.497681,-1.882597,10,
638549095972296928,490031,3.522138,-1.930721,10,
638549095972412053,490042,3.54789,-1.981396,10,
638549095972517184,490053,3.57317,-2.031141,10,
638549095972627185,490065,3.597725,-2.07946,10,
638549095972747184,490076,3.623242,-2.129671,10,
638549095972847184,490087,3.64935,-2.181046,10,
638549095972962275,490098,3.673202,-2.22798,10,
638549095973072268,490109,3.698595,-2.277947,10,
638549095973182279,490120,3.724039,-2.328015,10,
638549095973297394,490131,3.748563,-2.376273,10,
638549095973407400,490142,3.773808,-2.425949,10,
638549095973517399,490154,3.79945,-2.476406,10,
638549095973627400,490165,3.824295,-2.525296,10,
638549095973737395,490176,3.849616,-2.57512,10,
638549095973847400,490187,3.875035,-2.625138,10,
638549095973962508,490198,3.899876,-2.674021,10,
638549095974072512,490209,3.924901,-2.723264,10,
638549095974182510,490220,3.950368,-2.773376,10,
638549095974297610,490231,3.975606,-2.82304,10,
638549095974402736,490242,4.000509,-2.872043,10,
638549095974512746,490253,4.026111,-2.922421,10,
638549095974682727,490270,4.050794,-2.97099,10,
638549095974792734,490281,4.08835,-3.044891,10,
638549095974947836,490296,4.11339,-3.094164,10,
638549095974997846,490302,4.147767,-3.161808,10,
638549095975057843,490308,4.161049,-3.187944,10,
638549095975132948,490315,4.174338,-3.214094,10,
638549095975248038,490326,4.189707,-3.244338,10,
638549095975353165,490337,4.215858,-3.295797,10,
638549095975463149,490348,4.240551,-3.344385,10,
638549095975573173,490359,4.265389,-3.393261,10,
638549095975683151,490370,4.291389,-3.444422,10,
638549095975793161,490381,4.315896,-3.492645,10,
638549095975913459,490393,4.34114,-3.542321,10,
638549095976023405,490404,4.367049,-3.593304,10,
638549095976133647,490415,4.391291,-3.641007,10,
638549095976243656,490426,4.41652,-3.690652,10,
638549095976348759,490437,4.441772,-3.740341,10,
638549095976458746,490448,4.466753,-3.789497,10,
638549095976578752,490460,4.492197,-3.839565,10,
638549095976688755,490470,4.518549,-3.89142,10,
638549095976798753,490481,4.542192,-3.937943,10,
638549095976908760,490493,4.567558,-3.987859,10,
638549095977023884,490504,4.592914,-4.037754,10,
638549095977124089,490515,4.618261,-4.08763,10,
638549095977244086,490526,4.642846,-4.136008,10,
638549095977354093,490537,4.66877,-4.187019,10,
638549095977464088,490548,4.693487,-4.235656,10,
638549095977574094,490559,4.71832,-4.284521,10,
638549095977684093,490570,4.743939,-4.334934,10,
638549095977794094,490581,4.768537,-4.383337,10,
638549095977909196,490593,4.794023,-4.433487,10,
638549095978024276,490604,4.820435,-4.48546,10,
638549095978134496,490615,4.844453,-4.532724,10,
638549095978239585,490626,4.869513,-4.582036,10,
638549095978349586,490637,4.894548,-4.631298,10,
638549095978459584,490648,4.919886,-4.681157,10,
638549095978579582,490659,4.944686,-4.729959,10,
638549095978679580,490670,4.970388,-4.780535,10,
638549095978799581,490681,4.995103,-4.829167,10,
638549095978909592,490692,5.020287,-4.878723,10,
638549095979014769,490704,5.045727,-4.928782,10,
638549095979134853,490715,5.070743,-4.978007,10,
638549095979244853,490726,5.096261,-5.028221,10,
638549095979359946,490737,5.121888,-5.07865,10,
638549095979469938,490749,5.147548,-5.129142,10,
638549095979579950,490760,5.173115,-5.179452,10,
638549095979699937,490772,5.199008,-5.230403,10,
638549095979809950,490783,5.225011,-5.281571,10,
638549095979929953,490795,5.250875,-5.332466,10,
638549095980045045,490806,5.276835,-5.383549,10,
638549095980155049,490817,5.303117,-5.435265,10,
638549095980265051,490829,5.328166,-5.484555,10,
638549095980390160,490840,5.354217,-5.535815,10,
638549095980500162,490852,5.380345,-5.58723,10,
638549095980610162,490863,5.406015,-5.637742,10,
638549095980730160,490875,5.431912,-5.688703,10,
638549095980840166,490886,5.458314,-5.740654,10,
638549095980960162,490897,5.483355,-5.789929,10,
638549095981075233,490909,5.509707,-5.841784,10,
638549095981185489,490920,5.536925,-5.895342,10,
638549095981295485,490931,5.56103,-5.942776,10,
638549095981400583,490942,5.585621,-5.991165,10,
638549095981510583,490953,5.611031,-6.041164,10,
638549095981620584,490964,5.635482,-6.089279,10,
638549095981735666,490975,5.660871,-6.139238,10,
638549095981840764,490986,5.685925,-6.18854,10,
638549095981960756,490998,5.710896,-6.237677,10,
638549095982075846,491009,5.736576,-6.288208,10,
638549095982175845,491020,5.763177,-6.340553,10,
638549095982290945,491031,5.786497,-6.386442,10,
638549095982400956,491042,5.811604,-6.435846,10,
638549095982510962,491053,5.837771,-6.487337,10,
638549095982620949,491064,5.862043,-6.535098,10,
638549095982740956,491076,5.887493,-6.585176,10,
638549095982850962,491086,5.913416,-6.636188,10,
638549095982960949,491097,5.937695,-6.683962,10,
638549095983066049,491109,5.963043,-6.733842,10,
638549095983176045,491119,5.988178,-6.7833,10,
638549095983286039,491131,6.012788,-6.831728,10,
638549095983406051,491142,6.03836,-6.882048,10,
638549095983506046,491153,6.064079,-6.932657,10,
638549095983626048,491164,6.088243,-6.980205,10,
638549095983736050,491175,6.113788,-7.030472,10,
638549095983841143,491186,6.138824,-7.079736,10,
638549095983961153,491197,6.163813,-7.128909,10,
638549095984066223,491209,6.189507,-7.179468,10,
638549095984176217,491219,6.214997,-7.229628,10,
638549095984286222,491231,6.239426,-7.277699,10,
638549095984411343,491243,6.264552,-7.327142,10,
638549095984511345,491253,6.291706,-7.380574,10,
638549095984621333,491264,6.314594,-7.425612,10,
638549095984741348,491275,6.340202,-7.476004,10,
638549095984841340,491286,6.366287,-7.527332,10,
638549095984951348,491297,6.390618,-7.575211,10,
638549095985066418,491308,6.415768,-7.624699,10,
638549095985176416,491319,6.440631,-7.673624,10,
638549095985286424,491331,6.465519,-7.722597,10,
638549095985406417,491342,6.491278,-7.773285,10,
638549095985506419,491353,6.516931,-7.823765,10,
638549095985626420,491364,6.541506,-7.872124,10,
638549095985736414,491375,6.566651,-7.921604,10,
638549095985841518,491386,6.591717,-7.970928,10,
638549095985951518,491397,6.61659,-8.019873,10,
638549095986066599,491409,6.642194,-8.070255,10,
638549095986176605,491419,6.667932,-8.1209,10,
638549095986286603,491431,6.692064,-8.168387,10,
638549095986396597,491442,6.717641,-8.218719,10,
638549095986506607,491453,6.742713,-8.268053,10,
638549095986626607,491464,6.767747,-8.317314,10,
638549095986736598,491475,6.793011,-8.367027,10,
638549095986841731,491486,6.818829,-8.41783,10,
638549095986951722,491497,6.843324,-8.466032,10,
638549095987066832,491508,6.868588,-8.515745,10,
638549095987176831,491519,6.893824,-8.565404,10,
638549095987291975,491530,6.918514,-8.613987,10,
638549095987401977,491542,6.943954,-8.664046,10,
638549095987511987,491553,6.97003,-8.715358,10,
638549095987621985,491564,6.994061,-8.762647,10,
638549095987731985,491575,7.019404,-8.812515,10,
638549095987841993,491586,7.044438,-8.861775,10,
638549095987957101,491597,7.069391,-8.910877,10,
638549095988072188,491609,7.094918,-8.961107,10,
638549095988172191,491619,7.120892,-9.012218,10,
638549095988287261,491630,7.145019,-9.059693,10,
638549095988397269,491642,7.170305,-9.10945,10,
638549095988507272,491653,7.195832,-9.159681,10,
638549095988617261,491664,7.22052,-9.208262,10,
638549095988732365,491675,7.245797,-9.258,10,
638549095988842371,491686,7.27218,-9.309916,10,
638549095988952359,491697,7.295985,-9.356757,10,
638549095989062364,491708,7.32133,-9.406631,10,
638549095989172370,491719,7.346691,-9.456535,10,
638549095989282354,491730,7.37151,-9.505374,10,
638549095989407501,491742,7.396744,-9.555028,10,
638549095989507491,491752,7.423128,-9.606946,10,
638549095989617496,491764,7.446781,-9.653489,10,
638549095989732598,491775,7.472527,-9.704152,10,
638549095989842601,491786,7.497507,-9.753307,10,
638549095989952595,491797,7.522341,-9.802175,10,
638549095990062590,491808,7.547987,-9.852639,10,
638549095990172586,491819,7.573591,-9.903024,10,
638549095990282588,491830,7.597593,-9.950253,10,
638549095990397655,491841,7.623225,-10.00069,10,
638549095990507656,491853,7.648438,-10.0503,10,
638549095990617660,491864,7.674077,-10.10076,10,
638549095990742770,491876,7.698918,-10.14964,10,
638549095990842760,491886,7.725669,-10.20228,10,
638549095990952762,491897,7.748648,-10.24749,10,
638549095991072763,491909,7.773994,-10.29737,10,
638549095991172765,491919,7.800381,-10.34929,10,
638549095991282759,491930,7.824432,-10.39662,10,
638549095991397893,491942,7.849702,-10.44635,10,
638549095991507889,491952,7.875562,-10.49723,10,
638549095991617888,491964,7.899588,-10.54451,10,
638549095991737891,491975,7.925576,-10.59565,10,
638549095991842998,491986,7.951053,-10.64578,10,
638549095991952990,491997,7.975327,-10.69354,10,
638549095992062993,492008,8.000763,-10.7436,10,
638549095992172998,492019,8.026233,-10.79371,10,
638549095992283002,492030,8.050747,-10.84195,10,
638549095992398096,492041,8.075979,-10.8916,10,
638549095992508096,492052,8.10115,-10.94113,10,
638549095992618089,492064,8.125902,-10.98984,10,
638549095992738093,492075,8.151582,-11.04037,10,
638549095992843203,492086,8.177738,-11.09184,10,
638549095992953198,492097,8.201592,-11.13878,10,
638549095993063193,492108,8.227093,-11.18896,10,
638549095993173193,492119,8.252119,-11.2382,10,
638549095993283208,492130,8.276936,-11.28704,10,
638549095993398347,492142,8.302716,-11.33777,10,
638549095993508348,492152,8.328603,-11.38871,10,
638549095993618347,492164,8.352561,-11.43585,10,
638549095993728342,492175,8.377887,-11.48569,10,
638549095993843454,492186,8.403097,-11.5353,10,
638549095993953454,492197,8.428148,-11.58459,10,
638549095994063449,492208,8.453551,-11.63458,10,
638549095994173458,492219,8.479354,-11.68535,10,
638549095994283447,492230,8.503838,-11.73353,10,
638549095994393460,492241,8.528827,-11.7827,10,
638549095994508597,492253,8.554567,-11.83335,10,
638549095994618606,492264,8.579519,-11.88245,10,
638549095994738609,492275,8.604801,-11.9322,10,
638549095994843712,492286,8.631008,-11.98376,10,
638549095994953707,492297,8.654638,-12.03026,10,
638549095995063723,492308,8.679787,-12.07975,10,
638549095995173700,492319,8.705322,-12.12999,10,
638549095995283703,492330,8.729903,-12.17836,10,
638549095995403711,492342,8.755266,-12.22827,10,
638549095995508875,492352,8.781863,-12.28061,10,
638549095995618867,492363,8.805578,-12.32727,10,
638549095995723960,492375,8.830685,-12.37668,10,
638549095995843970,492386,8.855967,-12.42643,10,
638549095995953972,492397,8.881252,-12.47618,10,
638549095996063968,492408,8.906386,-12.52564,10,
638549095996173969,492419,8.932745,-12.57751,10,
638549095996283967,492430,8.956733,-12.62471,10,
638549095996403963,492442,8.981851,-12.67414,10,
638549095996509081,492453,9.008002,-12.7256,10,
638549095996619093,492464,9.032222,-12.77325,10,
638549095996734199,492475,9.057559,-12.82311,10,
638549095996834192,492486,9.079471,-12.86623,10,
638549095996954195,492497,9.028188,-12.85224,10,
638549095997064200,492508,8.973265,-12.83726,10,
638549095997174196,492519,8.920888,-12.82297,10,
638549095997284203,492530,8.868236,-12.80861,10,
638549095997404199,492542,8.813181,-12.79359,10,
638549095997504195,492552,8.757296,-12.77835,10,
638549095997614191,492564,8.707578,-12.76479,10,
638549095997724198,492575,8.652223,-12.74969,10,
638549095997834191,492585,8.598857,-12.73513,10,
638549095997954199,492597,8.546774,-12.72092,10,
638549095998064194,492608,8.491789,-12.70592,10,
638549095998174193,492619,8.437443,-12.6911,10,
638549095998284204,492630,8.385794,-12.67701,10,
638549095998394205,492641,8.33149,-12.6622,10,
638549095998504191,492652,8.277622,-12.64751,10,
638549095998614208,492663,8.225142,-12.63319,10,
638549095998734195,492675,8.170647,-12.61832,10,
638549095998834190,492685,8.114308,-12.60296,10,
638549095998954194,492697,8.064556,-12.58939,10,
638549095999054194,492708,8.009945,-12.57449,10,
638549095999174201,492719,7.957009,-12.56005,10,
638549095999284208,492730,7.903781,-12.54553,10,
638549095999404203,492742,7.849361,-12.53069,10,
638549095999504196,492752,7.792924,-12.51529,10,
638549095999614194,492763,7.742619,-12.50157,10,
638549095999724193,492775,7.68817,-12.48672,10,
638549095999834194,492785,7.634297,-12.47202,10,
638549095999944196,492797,7.582096,-12.45778,10,
638549096000064200,492808,7.528006,-12.44303,10,
638549096000174204,492819,7.472196,-12.4278,10,
638549096000284198,492830,7.421262,-12.41391,10,
638549096000394192,492841,7.367037,-12.39912,10,
638549096000504189,492852,7.313471,-12.38451,10,
638549096000614191,492863,7.261068,-12.37021,10,
638549096000734204,492875,7.206783,-12.3554,10,
638549096000834191,492885,7.149499,-12.33978,10,
638549096000954201,492897,7.100261,-12.32635,10,
638549096001064197,492908,7.044893,-12.31124,10,
638549096001164199,492919,6.992088,-12.29684,10,
638549096001284195,492930,6.939345,-12.28245,10,
638549096001394199,492942,6.884771,-12.26757,10,
638549096001504190,492952,6.829235,-12.25242,10,
638549096001614191,492963,6.778517,-12.23858,10,
638549096001724195,492975,6.724386,-12.22382,10,
638549096001834200,492985,6.66982,-12.20893,10,
638549096001944192,492996,6.618074,-12.19482,10,
638549096002064198,493008,6.563809,-12.18002,10,
