time(100ns),time_stamp(ms),object1.x,object1.y,object1.z,
638524992336748417,458511,0,5,10,
638524992336808416,458518,0.06902201,4.958695,10,
638524992336888409,458526,0.09618007,4.942443,10,
638524992337008413,458537,0.1332006,4.92029,10,
638524992337118415,458548,0.1812303,4.891547,10,
638524992337228415,458560,0.2275675,4.863818,10,
638524992337338407,458571,0.2758572,4.83492,10,
638524992337448408,458582,0.3235845,4.806359,10,
638524992337558416,458593,0.3709827,4.777995,10,
638524992337668410,458604,0.4191987,4.749141,10,
638524992337778410,458615,0.4666643,4.720736,10,
638524992337898412,458626,0.5139526,4.692437,10,
638524992338008420,458637,0.5616593,4.663888,10,
638524992338118408,458648,0.6097671,4.635099,10,
638524992338228418,458659,0.656992,4.606838,10,
638524992338338429,458671,0.7046211,4.578336,10,
638524992338448414,458682,0.7524149,4.549735,10,
638524992338558407,458693,0.7997444,4.521411,10,
638524992338678427,458704,0.8475142,4.492825,10,
638524992338778403,458715,0.8960759,4.463764,10,
638524992338898419,458726,0.9428648,4.435764,10,
638524992339008410,458737,0.9908594,4.407043,10,
638524992339118408,458748,1.038684,4.378423,10,
638524992339228401,458759,1.085839,4.350204,10,
638524992339338416,458771,1.133474,4.321698,10,
638524992339448409,458782,1.181533,4.292938,10,
638524992339558412,458793,1.228552,4.264801,10,
638524992339678426,458804,1.276296,4.23623,10,
638524992339778415,458815,1.324732,4.207244,10,
638524992339888410,458826,1.371792,4.179082,10,
638524992340008424,458837,1.41941,4.150586,10,
638524992340118406,458848,1.467084,4.122056,10,
638524992340228417,458859,1.51473,4.093544,10,
638524992340338416,458871,1.562765,4.064798,10,
638524992340448410,458882,1.61087,4.036011,10,
638524992340568407,458893,1.659513,4.006902,10,
638524992340678414,458905,1.707919,3.977935,10,
638524992340788405,458916,1.756465,3.948883,10,
638524992340908414,458927,1.804235,3.920296,10,
638524992341018416,458938,1.852619,3.891342,10,
638524992341128410,458949,1.901427,3.862134,10,
638524992341238407,458961,1.949008,3.833661,10,
638524992341358411,458972,1.997831,3.804444,10,
638524992341468405,458983,2.046486,3.775327,10,
638524992341578410,458995,2.094555,3.746561,10,
638524992341698409,459006,2.143397,3.717333,10,
638524992341808405,459017,2.191549,3.688518,10,
638524992341918410,459029,2.239884,3.659593,10,
638524992342028407,459040,2.288224,3.630665,10,
638524992342148412,459051,2.336566,3.601735,10,
638524992342258418,459062,2.385347,3.572544,10,
638524992342368415,459073,2.432204,3.544503,10,
638524992342478416,459084,2.479002,3.516498,10,
638524992342588419,459095,2.527215,3.487646,10,
638524992342698400,459106,2.574416,3.459399,10,
638524992342808410,459118,2.62223,3.430787,10,
638524992342918411,459129,2.670412,3.401953,10,
638524992343028411,459140,2.717581,3.373726,10,
638524992343148417,459151,2.76554,3.345026,10,
638524992343248405,459162,2.814175,3.315922,10,
638524992343368524,459173,2.860345,3.288292,10,
638524992343478537,459184,2.908441,3.259511,10,
638524992343588531,459196,2.955912,3.231102,10,
638524992343698534,459206,3.004552,3.201995,10,
638524992343808539,459218,3.051003,3.174197,10,
638524992343918517,459229,3.098836,3.145573,10,
638524992344028521,459240,3.146608,3.116985,10,
638524992344138527,459251,3.194536,3.088303,10,
638524992344258535,459262,3.242119,3.059828,10,
638524992344358523,459273,3.29027,3.031013,10,
638524992344478538,459284,3.336945,3.003082,10,
638524992344588525,459295,3.384974,2.97434,10,
638524992344698526,459306,3.43197,2.946216,10,
638524992344808525,459318,3.480235,2.917333,10,
638524992344918532,459329,3.528136,2.888668,10,
638524992345028524,459340,3.575061,2.860587,10,
638524992345148526,459351,3.623493,2.831604,10,
638524992345248529,459362,3.67282,2.802085,10,
638524992345358685,459373,3.718505,2.774746,10,
638524992345478696,459384,3.765979,2.746336,10,
638524992345588690,459395,3.814315,2.717411,10,
638524992345698696,459407,3.861153,2.689382,10,
638524992345808683,459417,3.909596,2.660392,10,
638524992345918692,459429,3.956481,2.632335,10,
638524992346028694,459440,4.0038,2.604017,10,
638524992346138688,459451,4.051955,2.5752,10,
638524992346248694,459462,4.099434,2.546788,10,
638524992346368815,459473,4.147245,2.518176,10,
638524992346468827,459484,4.196217,2.48887,10,
638524992346588812,459495,4.242558,2.461138,10,
638524992346698810,459506,4.29027,2.432586,10,
638524992346808812,459517,4.337753,2.404171,10,
638524992346918804,459528,4.385344,2.375691,10,
638524992347028807,459540,4.432959,2.347198,10,
638524992347138814,459551,4.482098,2.317791,10,
638524992347248819,459562,4.52801,2.290317,10,
638524992347368810,459573,4.576678,2.261192,10,
638524992347468805,459584,4.625106,2.232212,10,
638524992347578809,459595,4.671177,2.204642,10,
638524992347698811,459606,4.718949,2.176054,10,
638524992347808812,459617,4.76703,2.147281,10,
638524992347948802,459631,4.814166,2.119073,10,
638524992348058805,459643,4.874393,2.083031,10,
638524992348168800,459654,4.922345,2.054336,10,
638524992348348902,459671,4.970152,2.025727,10,
638524992348408909,459677,5.045548,1.980608,10,
638524992348468919,459684,5.071318,1.965187,10,
638524992348558905,459692,5.099297,1.948443,10,
638524992348668902,459704,5.138128,1.925206,10,
638524992348778904,459715,5.185886,1.896626,10,
638524992348888903,459726,5.233454,1.86816,10,
638524992349008905,459738,5.280986,1.839716,10,
638524992349118904,459748,5.329537,1.810661,10,
638524992349228912,459759,5.376368,1.782637,10,
638524992349334118,459770,5.42385,1.754222,10,
638524992349444127,459782,5.471386,1.725775,10,
638524992349554117,459793,5.519225,1.697147,10,
638524992349674131,459804,5.5666,1.668797,10,
638524992349784122,459815,5.61456,1.640096,10,
638524992349894116,459826,5.662348,1.611499,10,
638524992350009334,459838,5.709539,1.583258,10,
638524992350119332,459848,5.758615,1.55389,10,
638524992350239330,459860,5.80513,1.526054,10,
638524992350349345,459871,5.854327,1.496613,10,
638524992350449334,459882,5.901669,1.468282,10,
638524992350569334,459894,5.948294,1.440381,10,
638524992350679345,459905,5.997848,1.410727,10,
638524992350779342,459915,6.044704,1.382687,10,
638524992350889340,459926,6.091891,1.354449,10,
638524992351009335,459938,6.138822,1.326364,10,
638524992351109332,459948,6.188088,1.296882,10,
638524992351229332,459959,6.233702,1.269585,10,
638524992351334542,459971,6.281826,1.240786,10,
638524992351444530,459981,6.330201,1.211838,10,
638524992351554554,459993,6.376764,1.183973,10,
638524992351674537,460004,6.424552,1.155375,10,
638524992351784533,460015,6.472499,1.126683,10,
638524992351894040,460026,6.519514,1.098548,10,
638524992352003955,460037,6.567481,1.069843,10,
638524992352113953,460048,6.615828,1.040911,10,
638524992352233958,460060,6.663984,1.012093,10,
638524992352343963,460071,6.712547,0.9830317,10,
638524992352453955,460082,6.762175,0.9533334,10,
638524992352563953,460093,6.809311,0.9251251,10,
638524992352683963,460105,6.857431,0.8963289,10,
638524992352793969,460116,6.90696,0.8666897,10,
638524992352904058,460127,6.953925,0.8385849,10,
638524992353024059,460139,7.002838,0.8093138,10,
638524992353134056,460150,7.051386,0.7802615,10,
638524992353244055,460161,7.099309,0.7515836,10,
638524992353354056,460172,7.147455,0.7227716,10,
638524992353474055,460184,7.195812,0.6938338,10,
638524992353584071,460195,7.244267,0.6648364,10,
638524992353694052,460206,7.292902,0.6357322,10,
638524992353804067,460217,7.340042,0.6075225,10,
638524992353914172,460228,7.387217,0.5792918,10,
638524992354024166,460239,7.434903,0.5507555,10,
638524992354134168,460250,7.483059,0.5219374,10,
638524992354244169,460261,7.530292,0.4936719,10,
638524992354364174,460273,7.578142,0.4650373,10,
638524992354474172,460284,7.626058,0.4363627,10,
638524992354584168,460295,7.673157,0.4081774,10,
638524992354694175,460306,7.720745,0.3796997,10,
638524992354804176,460317,7.768641,0.351037,10,
638524992354914264,460328,7.81606,0.32266,10,
638524992355024268,460339,7.86433,0.2937741,10,
638524992355134272,460350,7.911578,0.2654996,10,
638524992355244266,460361,7.959024,0.2371063,10,
638524992355364277,460373,8.006715,0.2085667,10,
638524992355474277,460384,8.055013,0.1796641,10,
638524992355584271,460395,8.103501,0.1506472,10,
638524992355694267,460406,8.149608,0.1230559,10,
638524992355804266,460417,8.199738,0.09305716,10,
638524992355914379,460428,8.24456,0.06623363,10,
638524992356024385,460439,8.292708,0.03742027,10,
638524992356134383,460450,8.340539,0.008797169,10,
638524992356244367,460461,8.388117,-0.01967478,10,
638524992356354373,460472,8.435669,-0.04813099,10,
638524992356464380,460484,8.483256,-0.07660818,10,
638524992356584389,460495,8.531048,-0.1052079,10,
638524992356694381,460506,8.578419,-0.1335559,10,
638524992356804387,460517,8.62633,-0.1622272,10,
638524992356914489,460528,8.673899,-0.1906934,10,
638524992357024474,460539,8.723356,-0.2202897,10,
638524992357134477,460550,8.768691,-0.2474194,10,
638524992357244481,460561,8.81665,-0.2761192,10,
638524992357354514,460572,8.864301,-0.3046341,10,
638524992357464479,460584,8.912133,-0.3332582,10,
638524992357584483,460595,8.959674,-0.3617082,10,
638524992357694485,460606,9.007971,-0.3906102,10,
638524992357804482,460617,9.055052,-0.4187846,10,
638524992357914608,460628,9.102654,-0.4472709,10,
638524992358024613,460639,9.150552,-0.4759345,10,
638524992358134616,460650,9.19782,-0.504221,10,
638524992358244601,460661,9.245327,-0.5326505,10,
638524992358354607,460672,9.292867,-0.5610991,10,
638524992358464598,460683,9.34062,-0.5896759,10,
638524992358574597,460695,9.388256,-0.6181827,10,
638524992358694609,460706,9.436422,-0.647007,10,
638524992358804612,460717,9.484207,-0.6756024,10,
638524992358914727,460728,9.531727,-0.7040396,10,
638524992359024716,460739,9.579482,-0.7326174,10,
638524992359134731,460750,9.627087,-0.7611051,10,
638524992359244717,460761,9.675269,-0.7899389,10,
638524992359354707,460772,9.722034,-0.8179235,10,
638524992359464718,460783,9.769631,-0.8464074,10,
638524992359574723,460794,9.817705,-0.875176,10,
638524992359684712,460806,9.86503,-0.9034963,10,
638524992359804723,460817,9.912863,-0.9321203,10,
638524992359914808,460828,9.960828,-0.960824,10,
638524992360024822,460839,10.00816,-0.989151,10,
638524992360134824,460850,10.05645,-1.018045,10,
638524992360244807,460861,10.10324,-1.046046,10,
638524992360354805,460872,10.15118,-1.074739,10,
638524992360464816,460883,10.19888,-1.103282,10,
638524992360574806,460895,10.24644,-1.131742,10,
638524992360684805,460906,10.2943,-1.160381,10,
638524992360804811,460917,10.34178,-1.188798,10,
638524992360914931,460928,10.38955,-1.217387,10,
638524992361024941,460939,10.43683,-1.245678,10,
638524992361134943,460950,10.48468,-1.274312,10,
638524992361244932,460961,10.53377,-1.303689,10,
638524992361354929,460972,10.57971,-1.331183,10,
638524992361464926,460983,10.62757,-1.359819,10,
638524992361574931,460995,10.67551,-1.388509,10,
638524992361694938,461006,10.7231,-1.416987,10,
638524992361804934,461017,10.77116,-1.445752,10,
638524992361915046,461028,10.8183,-1.473962,10,
638524992362025039,461039,10.86611,-1.502568,10,
638524992362135039,461050,10.91383,-1.531128,10,
638524992362245051,461061,10.96103,-1.559374,10,
638524992362355040,461072,11.0089,-1.58802,10,
638524992362465036,461083,11.05711,-1.61687,10,
638524992362575027,461095,11.10395,-1.6449,10,
638524992362695040,461106,11.15168,-1.673463,10,
638524992362805042,461117,11.20004,-1.702403,10,
638524992362915153,461128,11.2478,-1.730984,10,
638524992363025137,461139,11.29486,-1.759145,10,
638524992363135145,461150,11.34228,-1.787523,10,
638524992363245142,461161,11.39014,-1.816163,10,
638524992363355148,461172,11.43791,-1.844754,10,
638524992363465154,461183,11.48525,-1.873082,10,
638524992363575141,461194,11.53342,-1.901909,10,
638524992363685145,461205,11.58084,-1.930285,10,
638524992363795153,461217,11.6284,-1.958747,10,
638524992363915258,461228,11.67618,-1.987342,10,
638524992364025241,461239,11.72368,-2.015765,10,
638524992364135249,461250,11.771,-2.044085,10,
638524992364245244,461261,11.81899,-2.072802,10,
638524992364355238,461272,11.86647,-2.101215,10,
638524992364465237,461283,11.91406,-2.12969,10,
638524992364575241,461294,11.96168,-2.158189,10,
638524992364685250,461306,12.00954,-2.186832,10,
638524992364795242,461317,12.05812,-2.215903,10,
638524992364905244,461328,12.10497,-2.24394,10,
638524992365025244,461339,12.15221,-2.272205,10,
638524992365135253,461350,12.20058,-2.301151,10,
638524992365245248,461361,12.24744,-2.329197,10,
638524992365355236,461372,12.29624,-2.358401,10,
638524992365465238,461383,12.34313,-2.386459,10,
638524992365575238,461394,12.3907,-2.414927,10,
638524992365695244,461406,12.43882,-2.443726,10,
638524992365795262,461417,12.48764,-2.472937,10,
638524992365915369,461428,12.53368,-2.500489,10,
638524992366025360,461439,12.58172,-2.529239,10,
638524992366135356,461450,12.62913,-2.55761,10,
638524992366245363,461461,12.67644,-2.585923,10,
638524992366355357,461472,12.72393,-2.614341,10,
638524992366465353,461483,12.7724,-2.643348,10,
638524992366575352,461494,12.81952,-2.671543,10,
638524992366685354,461505,12.86678,-2.699822,10,
638524992366795368,461517,12.9153,-2.72886,10,
638524992366905464,461528,12.96251,-2.757113,10,
638524992367015452,461539,13.01045,-2.785801,10,
638524992367135459,461550,13.05797,-2.814239,10,
638524992367245453,461561,13.10571,-2.842809,10,
638524992367355462,461572,13.15277,-2.870973,10,
638524992367465461,461583,13.20125,-2.899982,10,
638524992367575469,461594,13.24839,-2.928195,10,
638524992367685455,461605,13.29578,-2.956553,10,
638524992367795461,461616,13.34378,-2.985276,10,
638524992367915571,461628,13.34581,-2.986488,10,
638524992368015564,461639,13.30074,-2.953061,10,
638524992368125559,461650,13.25625,-2.92006,10,
638524992368245562,461661,13.21217,-2.887366,10,
638524992368355559,461672,13.16757,-2.85428,10,
638524992368465566,461683,13.12299,-2.821219,10,
638524992368575561,461694,13.07836,-2.788113,10,
638524992368685565,461705,13.03379,-2.755053,10,
638524992368795560,461716,12.98885,-2.721721,10,
638524992368905681,461727,12.94474,-2.688999,10,
638524992369025677,461739,12.9,-2.655815,10,
638524992369125670,461750,12.85463,-2.622164,10,
638524992369235672,461761,12.81087,-2.589701,10,
638524992369355673,461772,12.76646,-2.556761,10,
638524992369465679,461783,12.72161,-2.523497,10,
638524992369575688,461794,12.6773,-2.49063,10,
638524992369685673,461805,12.63233,-2.457275,10,
638524992369795671,461816,12.58719,-2.423789,10,
638524992369905789,461827,12.54311,-2.39109,10,
638524992370015782,461839,12.49842,-2.357948,10,
638524992370125786,461850,12.45336,-2.324519,10,
638524992370235785,461861,12.40886,-2.291516,10,
638524992370355782,461872,12.36491,-2.258912,10,
638524992370465788,461883,12.32016,-2.225719,10,
638524992370575786,461894,12.27562,-2.192686,10,
638524992370685785,461905,12.23122,-2.15975,10,
638524992370795790,461916,12.18666,-2.126696,10,
638524992370905892,461928,12.1416,-2.093278,10,
638524992371015881,461939,12.09706,-2.060235,10,
638524992371125875,461950,12.05187,-2.026718,10,
638524992371235872,461961,12.00784,-1.994061,10,
638524992371355884,461972,11.96343,-1.961117,10,
638524992371465897,461983,11.91874,-1.927974,10,
638524992371575874,461994,11.87441,-1.89509,10,
638524992371685889,462005,11.82938,-1.861689,10,
638524992371795887,462016,11.7843,-1.828251,10,
638524992371905976,462027,11.74034,-1.795642,10,
638524992372015971,462039,11.69573,-1.762558,10,
638524992372125992,462050,11.65071,-1.729162,10,
638524992372235978,462061,11.60649,-1.696362,10,
638524992372355978,462072,11.56172,-1.663155,10,
638524992372465990,462083,11.51595,-1.629206,10,
638524992372575970,462094,11.47275,-1.597157,10,
638524992372685976,462105,11.42823,-1.564139,10,
638524992372795983,462116,11.38294,-1.530544,10,
638524992372906086,462127,11.33918,-1.498083,10,
638524992373016077,462138,11.29429,-1.464786,10,
638524992373126084,462150,11.2496,-1.431637,10,
638524992373236075,462161,11.20499,-1.398548,10,
638524992373356086,462172,11.16046,-1.365518,10,
638524992373466094,462183,11.11581,-1.332403,10,
638524992373576078,462194,11.07135,-1.299426,10,
638524992373686085,462205,11.02609,-1.26585,10,
638524992373796089,462216,10.98166,-1.232897,10,
638524992373906182,462227,10.93766,-1.200259,10,
638524992374016173,462238,10.89296,-1.167105,10,
638524992374126184,462249,10.84789,-1.13367,10,
638524992374236181,462260,10.8035,-1.100747,10,
638524992374346187,462272,10.75915,-1.067853,10,
638524992374456177,462283,10.71391,-1.034292,10,
638524992374566178,462294,10.67011,-1.001804,10,
638524992374686180,462305,10.62549,-0.9687114,10,
638524992374796198,462316,10.57981,-0.9348292,10,
638524992374902143,462327,10.53626,-0.9025235,10,
638524992375012158,462338,10.49121,-0.8691092,10,
638524992375122144,462349,10.44691,-0.8362494,10,
638524992375242142,462361,10.40252,-0.8033199,10,
638524992375352143,462372,10.35742,-0.7698679,10,
638524992375462139,462383,10.31223,-0.7363472,10,
638524992375572142,462394,10.26911,-0.7043629,10,
638524992375682146,462405,10.22407,-0.6709557,10,
638524992375792147,462416,10.17914,-0.63763,10,
638524992375902252,462427,10.13366,-0.6038952,10,
638524992376022246,462439,10.09034,-0.571763,10,
638524992376122238,462449,10.04337,-0.5369253,10,
638524992376242238,462460,10.00121,-0.5056548,10,
638524992376352356,462472,9.95631,-0.4723492,10,
638524992376462347,462483,9.91106,-0.4387856,10,
638524992376572342,462494,9.867585,-0.406538,10,
638524992376682350,462505,9.822803,-0.3733215,10,
638524992376792343,462516,9.777789,-0.3399324,10,
638524992376902448,462527,9.733738,-0.3072577,10,
638524992377022454,462539,9.68884,-0.2739549,10,
638524992377122459,462549,9.643223,-0.240119,10,
638524992377232445,462560,9.599684,-0.2078242,10,
638524992377352452,462572,9.554981,-0.1746659,10,
638524992377462451,462583,9.510364,-0.141571,10,
638524992377572448,462594,9.46604,-0.1086936,10,
638524992377682444,462605,9.421382,-0.07556868,10,
638524992377792458,462616,9.376202,-0.04205656,10,
638524992377902555,462627,9.331904,-0.009199619,10,
638524992378012561,462638,9.287189,0.02396822,10,
638524992378122557,462649,9.242331,0.05724144,10,
638524992378232552,462660,9.198169,0.08999825,10,
638524992378352558,462672,9.153555,0.1230907,10,
638524992378462559,462683,9.108557,0.1564679,10,
638524992378572562,462694,9.06448,0.1891618,10,
638524992378682548,462705,9.019841,0.2222724,10,
638524992378792211,462715,8.975037,0.255506,10,
638524992378902410,462727,8.931135,0.2880697,10,
638524992379012406,462738,8.885964,0.3215747,10,
638524992379122400,462749,8.841106,0.3548474,10,
638524992379232399,462760,8.796831,0.3876882,10,
638524992379352408,462772,8.752428,0.4206238,10,
638524992379452402,462782,8.707142,0.4542146,10,
638524992379572400,462794,8.663453,0.4866204,10,
638524992379682410,462805,8.618125,0.5202427,10,
638524992379782398,462815,8.573013,0.5537043,10,
638524992379902510,462827,8.529533,0.5859551,10,
638524992380012511,462838,8.484641,0.6192536,10,
638524992380122500,462849,8.439822,0.6524978,10,
638524992380232505,462860,8.395407,0.6854424,10,
638524992380352506,462872,8.350742,0.7185721,10,
638524992380462507,462882,8.304925,0.7525568,10,
638524992380572500,462894,8.261584,0.7847047,10,
638524992380682507,462905,8.216934,0.8178234,10,
638524992380782509,462915,8.17227,0.8509526,10,
638524992380902608,462927,8.12788,0.8838782,10,
638524992381012599,462938,8.083061,0.9171224,10,
638524992381122597,462949,8.037656,0.9508009,10,
638524992381232596,462960,7.99414,0.9830785,10,
638524992381342602,462971,7.949404,1.016261,10,
638524992381452596,462982,7.904966,1.049222,10,
638524992381572609,462994,7.860455,1.082239,10,
638524992381682595,463005,7.815405,1.115654,10,
638524992381782594,463015,7.770701,1.148813,10,
638524992381902708,463027,7.726662,1.181479,10,
638524992382012691,463038,7.681803,1.214752,10,
638524992382122699,463049,7.636308,1.248498,10,
