time(100ns),time_stamp(ms),object1.x,object1.y,object1.z,
638524920864705094,110322,0,5,10,
638524920864775088,110329,0.0126152,4.909919,10,
638524920864825093,110334,0.01739825,4.875765,10,
638524920864925087,110344,0.02142961,4.846978,10,
638524920865035099,110355,0.02788276,4.800899,10,
638524920865145091,110366,0.03545333,4.74684,10,
638524920865255085,110377,0.04307966,4.692382,10,
638524920865365085,110388,0.05074156,4.637671,10,
638524920865473863,110399,0.05850435,4.58224,10,
638524920865583863,110410,0.06620093,4.527281,10,
638524920865693863,110421,0.07399999,4.47159,10,
638524920865803981,110432,0.08163457,4.417074,10,
638524920865913982,110444,0.08929841,4.362349,10,
638524920866033983,110455,0.09699055,4.307422,10,
638524920866143986,110466,0.104721,4.252221,10,
638524920866253997,110477,0.1124023,4.197372,10,
638524920866363983,110488,0.1201253,4.142225,10,
638524920866473986,110499,0.1278136,4.087325,10,
638524920866583980,110510,0.1357521,4.030639,10,
638524920866693983,110521,0.1432282,3.977254,10,
638524920866803978,110532,0.1508887,3.922553,10,
638524920866923978,110544,0.1586222,3.867331,10,
638524920867033983,110555,0.1664437,3.81148,10,
638524920867143979,110566,0.1740591,3.757101,10,
638524920867253984,110577,0.1817945,3.701865,10,
638524920867363981,110588,0.1894422,3.647256,10,
638524920867472492,110599,0.1971257,3.59239,10,
638524920867582505,110610,0.2047816,3.537722,10,
638524920867692496,110621,0.2126101,3.481821,10,
638524920867802493,110632,0.2203154,3.4268,10,
638524920867922494,110644,0.2278997,3.372643,10,
638524920868032490,110655,0.2357462,3.316614,10,
638524920868142488,110666,0.2433896,3.262035,10,
638524920868252589,110677,0.2510069,3.207643,10,
638524920868362589,110688,0.2588961,3.151308,10,
638524920868482696,110700,0.2668492,3.094518,10,
638524920868592700,110711,0.2746102,3.039099,10,
638524920868702707,110722,0.2824917,2.982819,10,
638524920868822694,110734,0.2903441,2.926748,10,
638524920868932698,110745,0.2981675,2.870884,10,
638524920869042695,110756,0.3060513,2.814588,10,
638524920869162694,110768,0.3139572,2.758135,10,
638524920869272712,110779,0.3218148,2.702026,10,
638524920869382700,110790,0.3297299,2.645507,10,
638524920869496726,110802,0.3375162,2.589908,10,
638524920869616726,110813,0.3454183,2.533482,10,
638524920869726733,110824,0.3533461,2.476871,10,
638524920869836733,110836,0.3611346,2.421256,10,
638524920869956733,110847,0.3689948,2.365129,10,
638524920870066736,110859,0.3768744,2.308864,10,
638524920870176730,110870,0.3848574,2.25186,10,
638524920870296730,110881,0.3925415,2.19699,10,
638524920870412427,110893,0.4004464,2.140545,10,
638524920870522274,110904,0.4083812,2.083884,10,
638524920870632269,110915,0.4159959,2.02951,10,
638524920870742371,110926,0.4238224,1.973624,10,
638524920870852368,110937,0.4314771,1.918964,10,
638524920870962372,110948,0.4391234,1.864364,10,
638524920871072368,110959,0.4468431,1.80924,10,
638524920871192377,110971,0.4545463,1.754234,10,
638524920871302381,110982,0.4624284,1.697951,10,
638524920871412386,110993,0.4700872,1.643262,10,
638524920871522375,111004,0.4776818,1.589031,10,
638524920871632383,111015,0.4853691,1.534139,10,
638524920871742369,111026,0.4930493,1.479297,10,
638524920871852384,111037,0.5007764,1.42412,10,
638524920871962362,111048,0.5084455,1.369358,10,
638524920872082382,111059,0.5162657,1.313516,10,
638524920872182371,111070,0.5240472,1.257951,10,
638524920872302374,111082,0.5316003,1.204017,10,
638524920872412374,111093,0.5394672,1.147842,10,
638524920872512632,111103,0.5469872,1.094144,10,
638524920872632370,111115,0.5546268,1.039592,10,
638524920872742368,111126,0.5623915,0.9841471,10,
638524920872852384,111137,0.5702405,0.9281001,10,
638524920872962377,111148,0.5777338,0.8745928,10,
638524920873072365,111159,0.5855898,0.8184962,10,
638524920873182382,111170,0.593331,0.7632189,10,
638524920873297894,111181,0.6008903,0.70924,10,
638524920873413555,111193,0.6085979,0.6542025,10,
638524920873523381,111204,0.6164433,0.5981817,10,
638524920873638568,111215,0.6242179,0.542666,10,
638524920873738571,111226,0.6320955,0.4864144,10,
638524920873848562,111237,0.6394988,0.4335499,10,
638524920873968561,111248,0.6470792,0.3794208,10,
638524920874068564,111259,0.6548551,0.3238955,10,
638524920874188564,111270,0.6624782,0.2694616,10,
638524920874298572,111281,0.6701919,0.2143807,10,
638524920874411921,111293,0.677943,0.1590328,10,
638524920874521860,111304,0.6856775,0.1038032,10,
638524920874637027,111315,0.6933544,0.048985,10,
638524920874747012,111326,0.7013108,-0.007829189,10,
638524920874857030,111338,0.7089405,-0.0623107,10,
638524920874967027,111348,0.7168739,-0.1189604,10,
638524920875077019,111359,0.7243624,-0.1724329,10,
638524920875177012,111370,0.7320164,-0.2270875,10,
638524920875297018,111381,0.7395552,-0.28092,10,
638524920875412547,111393,0.7472671,-0.335988,10,
638524920875522420,111404,0.75506,-0.3916345,10,
638524920875634021,111415,0.7628878,-0.4475298,10,
638524920875744016,111426,0.7704569,-0.5015783,10,
638524920875844012,111437,0.7781017,-0.5561676,10,
638524920875964017,111448,0.7857615,-0.6108637,10,
638524920876074023,111459,0.7935518,-0.6664915,10,
638524920876184031,111470,0.8013352,-0.7220702,10,
638524920876294032,111481,0.8089405,-0.7763772,10,
638524920876404013,111492,0.8166819,-0.831656,10,
638524920876513139,111503,0.8242427,-0.8856449,10,
638524920876633257,111515,0.8319009,-0.9403291,10,
638524920876743258,111526,0.8396891,-0.9959421,10,
638524920876853278,111537,0.8473272,-1.050483,10,
638524920876963266,111548,0.8550339,-1.105515,10,
638524920877073254,111559,0.8627245,-1.160431,10,
638524920877183263,111570,0.870452,-1.215611,10,
638524920877293255,111581,0.8780875,-1.270133,10,
638524920877410477,111593,0.885812,-1.325291,10,
638524920877520507,111604,0.8936722,-1.381418,10,
638524920877630500,111615,0.9013802,-1.436459,10,
638524920877740488,111625,0.9091607,-1.492016,10,
638524920877850481,111637,0.9167718,-1.546364,10,
638524920877960500,111648,0.9245423,-1.601851,10,
638524920878070495,111659,0.9322763,-1.657077,10,
638524920878180481,111670,0.9398556,-1.711198,10,
638524920878297050,111681,0.9475075,-1.765838,10,
638524920878404531,111692,0.9551994,-1.820763,10,
638524920878514381,111703,0.9628586,-1.875455,10,
638524920878624386,111714,0.9705875,-1.930645,10,
638524920878734376,111726,0.9782836,-1.9856,10,
638524920878844380,111737,0.9859406,-2.040276,10,
638524920878964398,111748,0.9936423,-2.095271,10,
638524920879074387,111759,1.001473,-2.151186,10,
638524920879184386,111770,1.009036,-2.205195,10,
638524920879294387,111781,1.016747,-2.260253,10,
638524920879400851,111792,1.024462,-2.315344,10,
638524920879510752,111803,1.032243,-2.370904,10,
638524920879630764,111814,1.039853,-2.425248,10,
638524920879740755,111826,1.047604,-2.480598,10,
638524920879850755,111837,1.055327,-2.53574,10,
638524920879960759,111848,1.062981,-2.590394,10,
638524920880070750,111859,1.07066,-2.645228,10,
638524920880180752,111870,1.078447,-2.700836,10,
638524920880290755,111881,1.086043,-2.755078,10,
638524920880410756,111892,1.09378,-2.810323,10,
638524920880520761,111903,1.101571,-2.865957,10,
638524920880630754,111915,1.109247,-2.920765,10,
638524920880746193,111926,1.117072,-2.976643,10,
638524920880846199,111936,1.124962,-3.032986,10,
638524920880956185,111948,1.132412,-3.08618,10,
638524920881076189,111959,1.140006,-3.140406,10,
638524920881186199,111970,1.147856,-3.196461,10,
638524920881296192,111981,1.155431,-3.25055,10,
638524920881406183,111992,1.163178,-3.305873,10,
638524920881516876,112003,1.170767,-3.36006,10,
638524920881626883,112014,1.178484,-3.415168,10,
638524920881736861,112025,1.186205,-3.470298,10,
638524920881846867,112036,1.193889,-3.525167,10,
638524920881956870,112048,1.201579,-3.58008,10,
638524920882076876,112059,1.209371,-3.635716,10,
638524920882186868,112070,1.217068,-3.690681,10,
638524920882296871,112081,1.224769,-3.745672,10,
638524920882406869,112092,1.232427,-3.800352,10,
638524920882513183,112103,1.240146,-3.855473,10,
638524920882623194,112114,1.24778,-3.909987,10,
638524920882733185,112125,1.255561,-3.965544,10,
638524920882853190,112137,1.263244,-4.020407,10,
638524920882963179,112148,1.271074,-4.076319,10,
638524920883073192,112159,1.278794,-4.131445,10,
638524920883183188,112170,1.286488,-4.186386,10,
638524920883293186,112181,1.294012,-4.24011,10,
638524920883403189,112192,1.301709,-4.295076,10,
638524920883513188,112203,1.309579,-4.351268,10,
638524920883623187,112214,1.317177,-4.405523,10,
638524920883733185,112225,1.325021,-4.461538,10,
638524920883843187,112236,1.33262,-4.515797,10,
638524920883963183,112248,1.340206,-4.569969,10,
638524920884073195,112259,1.348002,-4.625635,10,
638524920884183185,112270,1.355605,-4.67993,10,
638524920884293190,112281,1.363421,-4.735737,10,
638524920884403181,112292,1.37102,-4.790003,10,
638524920884513200,112303,1.378745,-4.845163,10,
638524920884623178,112314,1.386441,-4.900117,10,
638524920884733184,112325,1.394193,-4.955474,10,
638524920884843180,112336,1.40188,-5.010362,10,
638524920884953185,112348,1.409555,-5.065166,10,
638524920885073189,112359,1.417296,-5.120447,10,
638524920885183199,112370,1.425033,-5.175694,10,
638524920885293190,112381,1.432681,-5.230307,10,
638524920885403189,112392,1.440386,-5.285324,10,
638524920885513183,112403,1.448057,-5.340101,10,
638524920885623183,112414,1.455755,-5.395065,10,
638524920885733188,112425,1.463514,-5.450473,10,
638524920885843175,112436,1.4712,-5.505354,10,
638524920885953186,112447,1.478847,-5.559961,10,
638524920886073192,112459,1.486588,-5.615235,10,
638524920886183186,112470,1.494282,-5.670177,10,
638524920886293193,112481,1.501943,-5.724883,10,
638524920886403186,112492,1.509686,-5.780168,10,
638524920886513186,112503,1.517347,-5.834875,10,
638524920886623195,112514,1.525055,-5.889915,10,
638524920886743194,112526,1.532785,-5.945115,10,
638524920886843179,112537,1.540778,-6.00219,10,
638524920886953183,112547,1.54829,-6.055831,10,
638524920887063185,112559,1.555967,-6.110646,10,
638524920887183204,112570,1.563579,-6.164999,10,
638524920887293194,112581,1.571358,-6.220549,10,
638524920887403194,112592,1.578999,-6.275113,10,
638524920887508225,112603,1.586689,-6.330025,10,
638524920887618224,112614,1.594384,-6.384972,10,
638524920887738218,112625,1.602085,-6.439957,10,
638524920887848222,112636,1.609792,-6.494997,10,
638524920887958234,112648,1.617482,-6.549904,10,
638524920888068215,112659,1.625225,-6.605197,10,
638524920888178238,112670,1.63296,-6.660427,10,
638524920888288216,112681,1.640632,-6.715215,10,
638524920888398221,112692,1.648373,-6.770491,10,
638524920888514083,112703,1.655968,-6.82472,10,
638524920888627143,112714,1.663653,-6.879601,10,
638524920888737135,112725,1.671431,-6.935139,10,
638524920888847135,112736,1.679084,-6.989788,10,
638524920888957140,112747,1.686789,-7.044807,10,
638524920889067141,112759,1.694532,-7.100099,10,
638524920889177150,112770,1.702337,-7.155829,10,
638524920889287134,112781,1.709879,-7.209686,10,
638524920889397178,112792,1.717626,-7.265,10,
638524920889514229,112803,1.725361,-7.320234,10,
638524920889624231,112814,1.732954,-7.374453,10,
638524920889734231,112825,1.74082,-7.430624,10,
638524920889844231,112836,1.748459,-7.48517,10,
638524920889954248,112847,1.756162,-7.540177,10,
638524920890064229,112858,1.763915,-7.595536,10,
638524920890174230,112869,1.771579,-7.650265,10,
638524920890284231,112881,1.779218,-7.704813,10,
638524920890404226,112892,1.786938,-7.75994,10,
638524920890512483,112903,1.794663,-7.815096,10,
638524920890626280,112914,1.802453,-7.870726,10,
638524920890736268,112925,1.810178,-7.925886,10,
638524920890846267,112936,1.817725,-7.979778,10,
638524920890956267,112947,1.825401,-8.034589,10,
638524920891066270,112958,1.833157,-8.089971,10,
638524920891176284,112970,1.840819,-8.144685,10,
638524920891286277,112981,1.848725,-8.201136,10,
638524920891396272,112992,1.856386,-8.255841,10,
638524920891515141,113003,1.864003,-8.310235,10,
638524920891625928,113014,1.871615,-8.364589,10,
638524920891735927,113025,1.879401,-8.420181,10,
638524920891845932,113036,1.887099,-8.475152,10,
638524920891955928,113047,1.894717,-8.52955,10,
638524920892065919,113058,1.902488,-8.585038,10,
638524920892175928,113069,1.910105,-8.639432,10,
638524920892285939,113081,1.917853,-8.694757,10,
638524920892405922,113092,1.925581,-8.749943,10,
638524920892515026,113103,1.933344,-8.805376,10,
638524920892625343,113114,1.941203,-8.861494,10,
638524920892735336,113125,1.948751,-8.915392,10,
638524920892845338,113136,1.956409,-8.970073,10,
638524920892955343,113147,1.964024,-9.024446,10,
638524920893065334,113158,1.971819,-9.080108,10,
638524920893175335,113169,1.979452,-9.134618,10,
638524920893285337,113181,1.987146,-9.189552,10,
638524920893405346,113192,1.994927,-9.245118,10,
638524920893515121,113203,2.002812,-9.301422,10,
638524920893625011,113214,2.010331,-9.35511,10,
638524920893734997,113225,2.018012,-9.409959,10,
638524920893845001,113236,2.025659,-9.464562,10,
638524920893954997,113247,2.033354,-9.519513,10,
638524920894065000,113258,2.041099,-9.574817,10,
638524920894175012,113269,2.048756,-9.629493,10,
638524920894285004,113280,2.054116,-9.667765,10,
638524920894395009,113291,2.058606,-9.612259,10,
638524920894514462,113303,2.063051,-9.55731,10,
638524920894624463,113314,2.067599,-9.501099,10,
638524920894734447,113325,2.072034,-9.446271,10,
638524920894844457,113336,2.076489,-9.391201,10,
638524920894954450,113347,2.081014,-9.335268,10,
638524920895064459,113358,2.085462,-9.280295,10,
638524920895174455,113369,2.089967,-9.224603,10,
638524920895284449,113380,2.09438,-9.170053,10,
638524920895394464,113392,2.098877,-9.114469,10,
638524920895504451,113403,2.103417,-9.058349,10,
638524920895620860,113414,2.107831,-9.003788,10,
638524920895730859,113425,2.112423,-8.947027,10,
638524920895840856,113436,2.116892,-8.891783,10,
638524920895950856,113447,2.121281,-8.837536,10,
638524920896070857,113459,2.125752,-8.782269,10,
638524920896170855,113469,2.130414,-8.724646,10,
638524920896290858,113480,2.134728,-8.671315,10,
638524920896400855,113491,2.139253,-8.615385,10,
638524920896510863,113503,2.143659,-8.560921,10,
638524920896620868,113514,2.148167,-8.505195,10,
638524920896730863,113525,2.152643,-8.449872,10,
638524920896840854,113536,2.157165,-8.393975,10,
638524920896950865,113547,2.161632,-8.338756,10,
638524920897090855,113561,2.166063,-8.283988,10,
638524920897200876,113572,2.171734,-8.213884,10,
638524920897320854,113583,2.176208,-8.158583,10,
638524920897490869,113600,2.180737,-8.102596,10,
638524920897550871,113607,2.187526,-8.018679,10,
638524920897610862,113613,2.190102,-7.986837,10,
638524920897710862,113623,2.19293,-7.951878,10,
638524920897820854,113634,2.196613,-7.906359,10,
638524920897930870,113645,2.20109,-7.851011,10,
638524920898040869,113656,2.20568,-7.794277,10,
638524920898150852,113667,2.210052,-7.740237,10,
638524920898270876,113679,2.214527,-7.684923,10,
638524920898380858,113689,2.219119,-7.628163,10,
638524920898490867,113700,2.2235,-7.574005,10,
638524920898600865,113712,2.227964,-7.518832,10,
638524920898710858,113723,2.232477,-7.463043,10,
638524920898820854,113734,2.236947,-7.407794,10,
638524920898930926,113745,2.241379,-7.353003,10,
638524920899040862,113756,2.245929,-7.296759,10,
638524920899150854,113767,2.250373,-7.241827,10,
638524920899260857,113778,2.254886,-7.186048,10,
638524920899380862,113789,2.259337,-7.131029,10,
638524920899490861,113801,2.263785,-7.076048,10,
638524920899600867,113812,2.268306,-7.020156,10,
638524920899710865,113823,2.272738,-6.965372,10,
638524920899820867,113834,2.277243,-6.909688,10,
638524920899930863,113845,2.281702,-6.854566,10,
638524920900040863,113856,2.286171,-6.79933,10,
638524920900150854,113867,2.290714,-6.743173,10,
638524920900260858,113878,2.295161,-6.688206,10,
638524920900380857,113889,2.299608,-6.633231,10,
638524920900490865,113900,2.304105,-6.577644,10,
638524920900600866,113912,2.308607,-6.521992,10,
638524920900710866,113923,2.313054,-6.467026,10,
638524920900820858,113934,2.317554,-6.411406,10,
638524920900930879,113945,2.32203,-6.356075,10,
638524920901040866,113956,2.326468,-6.30121,10,
638524920901150859,113967,2.330964,-6.245639,10,
638524920901270865,113979,2.335506,-6.189491,10,
638524920901380859,113990,2.340105,-6.132647,10,
638524920901490854,114001,2.344553,-6.077667,10,
638524920901610854,114012,2.349087,-6.021627,10,
638524920901720863,114024,2.35371,-5.964476,10,
638524920901830862,114035,2.358212,-5.908819,10,
638524920901940863,114046,2.362859,-5.851383,10,
638524920902050859,114057,2.367291,-5.796595,10,
638524920902170859,114069,2.37181,-5.74074,10,
638524920902280863,114080,2.376334,-5.68482,10,
638524920902390867,114091,2.380907,-5.628294,10,
638524920902500851,114102,2.385449,-5.572145,10,
638524920902620856,114113,2.389945,-5.516574,10,
638524920902730875,114125,2.394449,-5.460895,10,
638524920902840884,114136,2.398947,-5.405291,10,
638524920902950861,114147,2.403387,-5.350412,10,
638524920903060857,114158,2.407861,-5.295107,10,
638524920903170868,114169,2.412318,-5.240017,10,
638524920903290864,114180,2.416859,-5.18388,10,
638524920903400877,114191,2.4214,-5.127752,10,
638524920903510861,114203,2.42586,-5.072615,10,
638524920903620865,114214,2.430353,-5.017077,10,
638524920903730857,114225,2.434859,-4.96139,10,
638524920903840878,114236,2.439257,-4.907017,10,
638524920903950859,114247,2.44369,-4.852222,10,
638524920904060869,114258,2.448162,-4.796946,10,
638524920904170861,114269,2.452597,-4.742121,10,
638524920904280858,114280,2.457085,-4.686647,10,
638524920904390863,114291,2.461589,-4.630976,10,
638524920904500857,114302,2.466042,-4.575931,10,
638524920904620861,114314,2.470526,-4.520496,10,
638524920904730858,114324,2.475176,-4.46302,10,
638524920904840864,114335,2.479514,-4.409404,10,
638524920904950859,114347,2.483958,-4.354471,10,
638524920905060853,114358,2.488428,-4.299211,10,
638524920905170858,114369,2.492971,-4.243057,10,
638524920905280860,114380,2.497392,-4.188408,10,
638524920905390853,114391,2.501883,-4.132893,10,
638524920905500867,114402,2.506384,-4.077251,10,
638524920905620860,114413,2.510839,-4.022192,10,
638524920905730856,114424,2.515371,-3.966166,10,
638524920905840863,114435,2.519831,-3.911043,10,
638524920905950859,114447,2.524247,-3.856447,10,
638524920906060859,114458,2.528754,-3.800741,10,
638524920906170861,114469,2.533208,-3.74569,10,
638524920906280868,114480,2.537711,-3.690021,10,
638524920906390859,114491,2.542158,-3.635061,10,
638524920906500865,114502,2.546632,-3.57975,10,
638524920906610857,114513,2.551119,-3.524284,10,
638524920906730869,114525,2.55562,-3.468656,10,
638524920906840869,114535,2.560213,-3.41188,10,
638524920906950864,114547,2.564568,-3.358043,10,
638524920907060852,114558,2.569072,-3.30237,10,
638524920907170863,114569,2.573519,-3.247409,10,
638524920907280859,114580,2.578005,-3.191948,10,
638524920907390863,114591,2.582493,-3.13648,10,
638524920907500869,114602,2.58693,-3.081626,10,
638524920907610862,114613,2.59144,-3.025881,10,
638524920907720866,114624,2.595911,-2.970621,10,
638524920907830857,114635,2.600383,-2.915336,10,
638524920907950864,114647,2.604864,-2.85995,10,
638524920908060862,114658,2.609407,-2.803787,10,
638524920908170855,114669,2.613827,-2.749146,10,
638524920908280864,114680,2.61827,-2.694229,10,
638524920908390856,114691,2.622799,-2.638249,10,
638524920908500861,114702,2.627257,-2.583139,10,
638524920908610864,114713,2.631714,-2.528047,10,
638524920908720856,114724,2.636241,-2.472096,10,
638524920908840866,114735,2.640685,-2.417158,10,
638524920908950861,114746,2.645191,-2.361462,10,
638524920909060860,114758,2.64967,-2.306091,10,
638524920909170859,114769,2.654162,-2.250566,10,
638524920909280862,114780,2.658564,-2.196156,10,
638524920909390852,114791,2.663066,-2.14051,10,
638524920909500864,114802,2.66754,-2.085202,10,
638524920909610860,114813,2.672019,-2.029844,10,
638524920909720856,114824,2.676494,-1.974532,10,
