time(100ns),time_stamp(ms),object1.x,object1.y,object1.z,object2.x,object2.y,object2.z,object3.x,object3.y,object3.z,
638521427722662685,542225,21.77608,10.92931,20,-16.79491,24.28299,20,32.70938,16.23151,20,
638521427722742674,542232,21.7272,10.90477,19.95511,-16.75722,24.22848,19.95511,32.63596,16.19508,19.95511,
638521427722832675,542242,21.70212,10.89219,19.93208,-16.73787,24.20051,19.93208,32.59829,16.17638,19.93208,
638521427722942676,542253,21.67065,10.87639,19.90317,-16.7136,24.16541,19.90317,32.55101,16.15292,19.90317,
638521427723052676,542264,21.63469,10.85834,19.87014,-16.68586,24.12531,19.87014,32.49699,16.12611,19.87014,
638521427723162669,542275,21.59832,10.84009,19.83673,-16.65781,24.08476,19.83673,32.44236,16.099,19.83673,
638521427723272678,542286,21.56172,10.82172,19.80312,-16.62958,24.04394,19.80312,32.38739,16.07172,19.80312,
638521427723392671,542297,21.52577,10.80367,19.7701,-16.60186,24.00385,19.7701,32.33339,16.04493,19.7701,
638521427723502672,542308,21.48922,10.78533,19.73654,-16.57367,23.9631,19.73654,32.2785,16.01769,19.73654,
638521427723612674,542319,21.45308,10.76719,19.70334,-16.54579,23.92279,19.70334,32.2242,15.99074,19.70334,
638521427723722685,542331,21.41717,10.74917,19.67036,-16.5181,23.88275,19.67036,32.17026,15.96398,19.67036,
638521427723832669,542342,21.38029,10.73066,19.6365,-16.48966,23.84163,19.6365,32.11488,15.93649,19.6365,
638521427723942679,542353,21.34402,10.71246,19.60318,-16.46168,23.80119,19.60318,32.06039,15.90946,19.60318,
638521427724052678,542364,21.30847,10.69461,19.57053,-16.43426,23.76154,19.57053,32.00699,15.88296,19.57053,
638521427724162674,542375,21.27217,10.67639,19.53719,-16.40626,23.72106,19.53719,31.95246,15.8559,19.53719,
638521427724272673,542386,21.23597,10.65823,19.50394,-16.37835,23.6807,19.50394,31.89809,15.82892,19.50394,
638521427724392674,542397,21.19932,10.63983,19.47028,-16.35008,23.63982,19.47028,31.84303,15.8016,19.47028,
638521427724502672,542408,21.16309,10.62165,19.437,-16.32213,23.59942,19.437,31.78861,15.77459,19.437,
638521427724612674,542419,21.12704,10.60356,19.4039,-16.29434,23.55923,19.4039,31.73448,15.74773,19.4039,
638521427724722674,542431,21.09059,10.58526,19.37042,-16.26622,23.51858,19.37042,31.67972,15.72055,19.37042,
638521427724832675,542441,21.0541,10.56695,19.3369,-16.23808,23.47789,19.3369,31.62491,15.69335,19.3369,
638521427724942826,542453,21.01816,10.54891,19.30389,-16.21036,23.43781,19.30389,31.57092,15.66656,19.30389,
638521427725052817,542464,20.9819,10.53071,19.27059,-16.18239,23.39737,19.27059,31.51645,15.63954,19.27059,
638521427725162819,542475,20.94523,10.51231,19.23691,-16.15411,23.35648,19.23691,31.46137,15.6122,19.23691,
638521427725272831,542486,20.90947,10.49436,19.20407,-16.12653,23.3166,19.20407,31.40765,15.58555,19.20407,
638521427725392816,542497,20.87289,10.476,19.17048,-16.09832,23.27581,19.17048,31.35271,15.55828,19.17048,
638521427725492815,542508,20.83606,10.45751,19.13665,-16.06991,23.23474,19.13665,31.29739,15.53083,19.13665,
638521427725612819,542519,20.80058,10.43971,19.10407,-16.04255,23.19518,19.10407,31.2441,15.50439,19.10407,
638521427725722813,542531,20.76413,10.42142,19.07059,-16.01444,23.15454,19.07059,31.18935,15.47722,19.07059,
638521427725832829,542541,20.72708,10.40282,19.03656,-15.98586,23.11322,19.03656,31.13369,15.4496,19.03656,
638521427725942815,542553,20.69174,10.38508,19.0041,-15.9586,23.07381,19.0041,31.0806,15.42325,19.0041,
638521427726052816,542564,20.65501,10.36665,18.97037,-15.93028,23.03286,18.97037,31.02544,15.39588,18.97037,
638521427726162832,542575,20.61873,10.34844,18.93705,-15.9023,22.9924,18.93705,30.97095,15.36884,18.93705,
638521427726272815,542586,20.583,10.3305,18.90423,-15.87473,22.95255,18.90423,30.91727,15.3422,18.90423,
638521427726392815,542597,20.54603,10.31195,18.87028,-15.84622,22.91133,18.87028,30.86174,15.31465,18.87028,
638521427726502831,542609,20.50932,10.29353,18.83656,-15.81791,22.87039,18.83656,30.80661,15.28729,18.83656,
638521427726612828,542620,20.4724,10.275,18.80265,-15.78944,22.82922,18.80265,30.75114,15.25976,18.80265,
638521427726722816,542631,20.43536,10.25641,18.76863,-15.76087,22.78792,18.76863,30.69551,15.23216,18.76863,
638521427726842824,542642,20.39914,10.23822,18.73536,-15.73293,22.74752,18.73536,30.64109,15.20515,18.73536,
638521427726952839,542654,20.36263,10.2199,18.70184,-15.70477,22.70681,18.70184,30.58626,15.17794,18.70184,
638521427727062820,542665,20.32552,10.20128,18.66775,-15.67616,22.66543,18.66775,30.53052,15.15028,18.66775,
638521427727182822,542677,20.28901,10.18295,18.63422,-15.648,22.62472,18.63422,30.47568,15.12307,18.63422,
638521427727292824,542687,20.25046,10.16361,18.59881,-15.61826,22.58173,18.59881,30.41777,15.09433,18.59881,
638521427727402939,542698,20.21532,10.14597,18.56654,-15.59116,22.54255,18.56654,30.36499,15.06814,18.56654,
638521427727512924,542710,20.17876,10.12762,18.53296,-15.56296,22.50177,18.53296,30.31007,15.04089,18.53296,
638521427727622930,542721,20.14243,10.10938,18.49959,-15.53494,22.46126,18.49959,30.2555,15.01381,18.49959,
638521427727732923,542732,20.10631,10.09126,18.46642,-15.50709,22.42099,18.46642,30.20125,14.98689,18.46642,
638521427727842924,542743,20.06967,10.07287,18.43277,-15.47883,22.38013,18.43277,30.14621,14.95958,18.43277,
638521427727952942,542754,20.03364,10.05478,18.39968,-15.45104,22.33994,18.39968,30.09208,14.93272,18.39968,
638521427728062931,542765,19.9973,10.03654,18.3663,-15.42301,22.29942,18.3663,30.0375,14.90563,18.3663,
638521427728182927,542776,19.96136,10.01851,18.33329,-15.39529,22.25935,18.33329,29.98352,14.87884,18.33329,
638521427728292935,542787,19.92442,9.999968,18.29937,-15.36681,22.21815,18.29937,29.92804,14.85131,18.29937,
638521427728402929,542799,19.88817,9.981773,18.26607,-15.33885,22.17773,18.26607,29.87358,14.82429,18.26607,
638521427728512932,542810,19.85243,9.963837,18.23325,-15.31128,22.13788,18.23325,29.8199,14.79765,18.23325,
638521427728622921,542821,19.8159,9.945501,18.1997,-15.28311,22.09714,18.1997,29.76503,14.77042,18.1997,
638521427728732932,542832,19.77988,9.927423,18.16661,-15.25533,22.05697,18.16661,29.71092,14.74357,18.16661,
638521427728842916,542843,19.74324,9.909032,18.13296,-15.22707,22.01611,18.13296,29.65588,14.71626,18.13296,
638521427728952924,542854,19.70693,9.890808,18.09961,-15.19906,21.97562,18.09961,29.60134,14.68919,18.09961,
638521427729062925,542865,19.67103,9.872789,18.06664,-15.17137,21.93559,18.06664,29.54741,14.66243,18.06664,
638521427729182932,542876,19.63447,9.854442,18.03306,-15.14318,21.89482,18.03306,29.4925,14.63518,18.03306,
638521427729292932,542887,19.5981,9.836188,17.99966,-15.11513,21.85427,17.99966,29.43787,14.60807,17.99966,
638521427729402925,542898,19.56234,9.81824,17.96682,-15.08755,21.81439,17.96682,29.38416,14.58142,17.96682,
638521427729512921,542910,19.52598,9.799992,17.93342,-15.05951,21.77384,17.93342,29.32954,14.55432,17.93342,
638521427729622928,542921,19.48932,9.781589,17.89975,-15.03123,21.73296,17.89975,29.27447,14.52699,17.89975,
638521427729732924,542932,19.45337,9.763551,17.86674,-15.00351,21.69288,17.86674,29.22048,14.5002,17.86674,
638521427729842916,542943,19.41643,9.745008,17.83281,-14.97501,21.65168,17.83281,29.16499,14.47266,17.83281,
638521427729953041,542954,19.38008,9.726762,17.79942,-14.94697,21.61114,17.79942,29.11038,14.44556,17.79942,
638521427730063035,542965,19.34443,9.708874,17.76668,-14.91949,21.5714,17.76668,29.05684,14.41899,17.76668,
638521427730183049,542976,19.30819,9.690684,17.7334,-14.89153,21.53098,17.7334,29.00241,14.39198,17.7334,
638521427730283040,542987,19.27136,9.672201,17.69957,-14.86313,21.48992,17.69957,28.94709,14.36453,17.69957,
638521427730403039,542998,19.23602,9.654459,17.66711,-14.83587,21.4505,17.66711,28.89399,14.33818,17.66711,
638521427730513061,543009,19.19942,9.636094,17.6335,-14.80765,21.40969,17.6335,28.83903,14.31091,17.6335,
638521427730623047,543021,19.16297,9.617801,17.60002,-14.77953,21.36905,17.60002,28.78428,14.28374,17.60002,
638521427730733038,543032,19.12691,9.599704,17.56691,-14.75173,21.32884,17.56691,28.73012,14.25686,17.56691,
638521427730843034,543043,19.09013,9.581242,17.53312,-14.72335,21.28782,17.53312,28.67486,14.22944,17.53312,
638521427730953029,543054,19.05411,9.563165,17.50004,-14.69558,21.24766,17.50004,28.62076,14.2026,17.50004,
638521427731063047,543065,19.01743,9.544755,17.46635,-14.66729,21.20676,17.46635,28.56567,14.17526,17.46635,
638521427731183049,543076,18.98192,9.526932,17.43374,-14.6399,21.16716,17.43374,28.51232,14.14879,17.43374,
638521427731293047,543087,18.94502,9.508414,17.39985,-14.61144,21.12601,17.39985,28.4569,14.12128,17.39985,
638521427731403053,543098,18.90865,9.49016,17.36645,-14.58339,21.08545,17.36645,28.40227,14.09417,17.36645,
638521427731513053,543109,18.87239,9.47196,17.33314,-14.55542,21.04502,17.33314,28.3478,14.06715,17.33314,
638521427731623040,543120,18.83636,9.453876,17.30005,-14.52763,21.00484,17.30005,28.29368,14.04029,17.30005,
638521427731733036,543132,18.80014,9.435698,17.26678,-14.4997,20.96445,17.26678,28.23928,14.01329,17.26678,
638521427731843044,543143,18.76397,9.417545,17.23357,-14.4718,20.92412,17.23357,28.18495,13.98633,17.23357,
638521427731953035,543154,18.72742,9.399201,17.2,-14.44361,20.88336,17.2,28.13005,13.95909,17.2,
638521427732063037,543165,18.69153,9.381186,17.16703,-14.41593,20.84334,17.16703,28.07613,13.93233,17.16703,
638521427732183045,543176,18.65532,9.363014,17.13378,-14.38801,20.80296,17.13378,28.02175,13.90534,17.13378,
638521427732293053,543187,18.61812,9.344345,17.09961,-14.35932,20.76148,17.09961,27.96587,13.87762,17.09961,
638521427732403140,543198,18.58272,9.326577,17.0671,-14.33201,20.72201,17.0671,27.9127,13.85123,17.0671,
638521427732513147,543209,18.54633,9.308312,17.03368,-14.30395,20.68143,17.03368,27.85803,13.82411,17.03368,
638521427732623136,543220,18.51015,9.290152,17.00044,-14.27604,20.64108,17.00044,27.80368,13.79713,17.00044,
638521427732733145,543232,18.47418,9.272099,16.96741,-14.2483,20.60097,16.96741,27.74966,13.77032,16.96741,
638521427732843140,543243,18.43743,9.253654,16.93365,-14.21995,20.55999,16.93365,27.69445,13.74293,16.93365,
638521427732953139,543254,18.40137,9.235557,16.90054,-14.19214,20.51978,16.90054,27.64029,13.71605,16.90054,
638521427733063132,543265,18.36498,9.217295,16.86712,-14.16408,20.4792,16.86712,27.58564,13.68893,16.86712,
638521427733173145,543276,18.3287,9.199085,16.8338,-14.1361,20.43874,16.8338,27.53114,13.66189,16.8338,
638521427733283143,543287,18.29257,9.180952,16.80061,-14.10823,20.39845,16.80061,27.47687,13.63496,16.80061,
638521427733403150,543298,18.25632,9.162756,16.76731,-14.08027,20.35803,16.76731,27.42241,13.60793,16.76731,
638521427733513156,543309,18.2199,9.144479,16.73387,-14.05219,20.31742,16.73387,27.36771,13.58079,16.73387,
638521427733623144,543320,18.18357,9.126244,16.7005,-14.02416,20.2769,16.7005,27.31314,13.55371,16.7005,
638521427733733144,543331,18.14784,9.108314,16.66769,-13.99661,20.23706,16.66769,27.25948,13.52708,16.66769,
638521427733843147,543343,18.11101,9.089828,16.63386,-13.96821,20.19599,16.63386,27.20416,13.49963,16.63386,
638521427733953147,543354,18.07464,9.071577,16.60046,-13.94016,20.15544,16.60046,27.14953,13.47252,16.60046,
638521427734063141,543365,18.03827,9.053318,16.56705,-13.9121,20.11487,16.56705,27.09489,13.4454,16.56705,
638521427734173151,543376,18.00218,9.035209,16.53391,-13.88427,20.07464,16.53391,27.04069,13.41851,16.53391,
638521427734283158,543387,17.9657,9.016899,16.50041,-13.85614,20.03396,16.50041,26.98589,13.39132,16.50041,
638521427734393144,543398,17.92983,8.998894,16.46746,-3.617051,7.632674,20,26.932,13.36458,16.46746,
638521427734513146,543409,17.8935,8.980659,16.43409,-3.611016,7.619939,19.96663,26.87743,13.33749,16.43409,
638521427734623188,543420,17.85714,8.96241,16.40069,-3.604977,7.607194,19.93324,26.82281,13.31039,16.40069,
638521427734733139,543432,17.82111,8.944331,16.36761,-3.598993,7.594569,19.90015,26.76871,13.28354,16.36761,
638521427734843148,543443,17.78426,8.925835,16.33376,-3.592872,7.581651,19.8663,26.71335,13.25607,16.33376,
638521427734953289,543454,17.74778,8.907526,16.30026,-3.586812,7.568865,19.8328,26.65855,13.22888,16.30026,
638521427735063286,543465,17.71198,8.889561,16.26738,-3.580867,7.556319,19.79992,26.60479,13.2022,16.26738,
638521427735183287,543476,17.67562,8.871308,16.23398,-3.574826,7.543572,19.76652,26.55016,13.17509,16.23398,
638521427735283313,543487,17.63905,8.852955,16.20039,-3.568752,7.530754,19.73294,26.49523,13.14783,16.20039,
638521427735403272,543498,17.60296,8.834843,16.16725,-3.562757,7.518105,19.69979,26.44102,13.12093,16.16725,
638521427735513278,543509,17.56562,8.816102,16.13296,-3.556555,7.505017,19.6655,26.38494,13.0931,16.13296,
638521427735623290,543520,17.53054,8.798496,16.10074,-3.550729,7.492723,19.63328,26.33225,13.06696,16.10074,
638521427735733292,543531,17.49417,8.78024,16.06733,-3.544687,7.479973,19.59987,26.27761,13.03984,16.06733,
638521427735843290,543543,17.45794,8.76206,16.03406,-3.53867,7.467277,19.56661,26.2232,13.01284,16.03406,
638521427735953298,543554,17.42171,8.743872,16.00078,-3.532651,7.454574,19.53332,26.16876,12.98583,16.00078,
638521427736063275,543565,17.38429,8.725095,15.96642,-3.526437,7.441461,19.49896,26.11257,12.95794,15.96642,
638521427736173278,543576,17.34892,8.707342,15.93393,-3.520561,7.429063,19.46647,26.05944,12.93158,15.93393,
638521427736283275,543587,17.3129,8.689263,15.90085,-3.514578,7.416438,19.43339,26.00533,12.90473,15.90085,
638521427736433275,543601,17.27665,8.67107,15.86756,-3.508557,7.403732,19.4001,25.95088,12.87771,15.86756,
638521427736543276,543612,17.23004,8.647678,15.82475,-3.500815,7.387396,19.35729,25.88087,12.84297,15.82475,
638521427736653288,543623,17.19403,8.629606,15.79168,-3.494834,7.374775,19.32422,25.82679,12.81613,15.79168,
638521427736803276,543639,17.15824,8.611643,15.75881,-3.488889,7.36223,19.29135,25.77303,12.78945,15.75881,
638521427736863282,543644,17.10731,8.586078,15.71202,-3.480429,7.344376,19.24456,25.69651,12.75148,15.71202,
638521427736953288,543653,17.08843,8.576605,15.69469,-3.477293,7.33776,19.22723,25.66816,12.73742,15.69469,
638521427737063280,543665,17.05932,8.561994,15.66795,-3.472458,7.327556,19.20049,25.62443,12.71572,15.66795,
638521427737173297,543676,17.02245,8.543488,15.63409,-3.466334,7.314632,19.16663,25.56905,12.68823,15.63409,
638521427737283276,543687,16.98579,8.525089,15.60042,-3.460245,7.301784,19.13296,25.51399,12.66091,15.60042,
638521427737393427,543698,16.95009,8.507172,15.56763,-3.454315,7.28927,19.10017,25.46036,12.6343,15.56763,
638521427737513429,543709,16.91331,8.488714,15.53385,-3.448206,7.27638,19.06639,25.40512,12.60689,15.53385,
638521427737623431,543720,16.87728,8.470627,15.50075,-3.44222,7.263748,19.03329,25.35099,12.58002,15.50075,
638521427737733428,543731,16.84126,8.452547,15.46767,-3.436237,7.251122,19.00021,25.29688,12.55317,15.46767,
638521427737843415,543743,16.80488,8.43429,15.43426,-3.430194,7.238372,18.9668,25.24224,12.52606,15.43426,
638521427737953419,543753,16.7683,8.415935,15.40067,-3.424119,7.225553,18.93321,25.1873,12.4988,15.40067,
638521427738063402,543765,16.73266,8.398045,15.36793,-3.418199,7.213059,18.90047,25.13376,12.47223,15.36793,
638521427738183435,543776,16.69642,8.379855,15.33465,-3.412179,7.200356,18.86719,25.07932,12.44522,15.33465,
638521427738283418,543787,16.65777,8.360458,15.29915,-3.40576,7.18681,18.83169,25.02127,12.41641,15.29915,
638521427738393416,543798,16.62313,8.343073,15.26734,-3.400006,7.174669,18.79988,24.96924,12.39059,15.26734,
638521427738513422,543809,16.58734,8.325109,15.23447,-3.394061,7.162123,18.767,24.91548,12.36391,15.23447,
638521427738623427,543820,16.55027,8.306506,15.20042,-3.387904,7.149132,18.73296,24.8598,12.33628,15.20042,
638521427738733421,543831,16.51487,8.288736,15.16791,-3.382023,7.136722,18.70044,24.80662,12.30989,15.16791,
638521427738843414,543843,16.47842,8.270445,15.13443,-3.37597,7.123947,18.66697,24.75188,12.28273,15.13443,
638521427738953424,543853,16.44194,8.252136,15.10093,-3.36991,7.111161,18.63347,24.69709,12.25554,15.10093,
638521427739063422,543865,16.40607,8.23413,15.06798,-3.363951,7.098587,18.60052,24.6432,12.2288,15.06798,
638521427739173428,543876,16.3699,8.215975,15.03476,-3.357943,7.085908,18.5673,24.58887,12.20183,15.03476,
638521427739283418,543887,16.33331,8.197611,15.00115,-3.351866,7.073083,18.53369,24.53391,12.17456,15.00115,
638521427739393416,543898,16.29733,8.179552,14.96811,-3.345889,7.060472,18.50064,24.47986,12.14774,14.96811,
638521427739503436,543909,16.2608,8.161221,14.93456,-3.339822,7.047669,18.4671,24.425,12.12051,14.93456,
638521427739623421,543920,16.22448,8.142989,14.9012,-3.333788,7.034937,18.43374,24.37043,12.09344,14.9012,
638521427739733421,543931,16.18774,8.124554,14.86746,-3.327687,7.022063,18.4,24.31526,12.06606,14.86746,
638521427739843416,543942,16.15157,8.106396,14.83424,-3.321678,7.009382,18.36677,24.26092,12.03909,14.83424,
638521427739953566,543953,16.11597,8.088531,14.80154,-3.315766,6.996906,18.33408,24.20745,12.01256,14.80154,
638521427740063568,543965,16.07963,8.070292,14.76817,-3.309729,6.984169,18.30071,24.15287,11.98547,14.76817,
638521427740173584,543976,16.04323,8.052023,14.73474,-3.303683,6.97141,18.26727,24.09819,11.95834,14.73474,
638521427740283564,543987,16.00679,8.033732,14.70127,-3.29763,6.958637,18.2338,24.04345,11.93118,14.70127,
638521427740393574,543998,15.97072,8.015627,14.66814,-3.291638,6.945992,18.20067,23.98927,11.90429,14.66814,
638521427740503560,544009,15.93429,7.997347,14.63468,-3.285589,6.933227,18.16722,23.93456,11.87714,14.63468,
638521427740613563,544020,15.89836,7.979314,14.60168,-3.27962,6.920633,18.13422,23.88059,11.85036,14.60168,
638521427740733561,544031,15.86192,7.961025,14.56822,-3.273568,6.90786,18.10076,23.82585,11.8232,14.56822,
638521427740843558,544042,15.82544,7.942712,14.53471,-3.267507,6.895071,18.06724,23.77104,11.796,14.53471,
638521427740953565,544053,15.78937,7.92461,14.50158,-3.261516,6.882429,18.03412,23.71687,11.76912,14.50158,
638521427741063565,544065,15.75307,7.906392,14.46824,-3.255487,6.869706,18.00078,23.66234,11.74206,14.46824,
638521427741173567,544076,15.7167,7.888139,14.43484,-3.249446,6.856959,17.96738,23.60772,11.71495,14.43484,
638521427741283558,544087,15.68061,7.870025,14.40169,-3.243451,6.844308,17.93423,23.5535,11.68805,14.40169,
638521427741393566,544098,15.64422,7.851762,14.36827,-3.237407,6.831554,17.90081,23.49885,11.66093,14.36827,
638521427741513568,544109,15.60773,7.833448,14.33476,-3.231346,6.818764,17.8673,23.44404,11.63373,14.33476,
638521427741613572,544120,15.57047,7.814746,14.30054,-3.225157,6.805704,17.83307,23.38807,11.60596,14.30054,
638521427741723563,544131,15.53557,7.797229,14.26848,-3.219359,6.79347,17.80102,23.33564,11.57994,14.26848,
638521427741843563,544142,15.49919,7.778973,14.23507,-3.213317,6.780721,17.76761,23.28101,11.55283,14.23507,
638521427741953561,544153,15.46286,7.760738,14.2017,-3.207283,6.767986,17.73424,23.22643,11.52575,14.2017,
638521427742063554,544164,15.42665,7.742564,14.16845,-3.201268,6.755294,17.70098,23.17204,11.49875,14.16845,
638521427742173564,544176,15.39018,7.724259,14.13495,-3.19521,6.742511,17.66749,23.11726,11.47157,14.13495,
638521427742283575,544187,15.35387,7.706035,14.1016,-3.189179,6.729784,17.63414,23.06272,11.4445,14.1016,
638521427742393669,544198,15.31767,7.687865,14.06835,-3.183166,6.717095,17.60089,23.00834,11.41752,14.06835,
638521427742513671,544209,15.28151,7.669719,14.03515,-3.17716,6.704422,17.56768,22.95403,11.39057,14.03515,
638521427742613654,544220,15.24435,7.651069,14.00102,-3.170988,6.691398,17.53356,22.89822,11.36287,14.00102,
638521427742723669,544231,15.20897,7.633308,13.96852,-3.16511,6.678994,17.50105,22.84506,11.3365,13.96852,
638521427742843665,544242,15.17229,7.6149,13.93483,-3.159018,6.666139,17.46737,22.78997,11.30916,13.93483,
638521427742953665,544253,15.1361,7.596737,13.90159,-22.83516,-28.65991,20,22.73561,11.28218,13.90159,
