time(100ns),time_stamp(ms),frame,gaze_direct_L.x,gaze_direct_L.y,gaze_direct_L.z,gaze_direct_R.x,gaze_direct_R.y,gaze_direct_R.z,forward.x,forward.y,forward.z,
638503289689209060,1222349,106465,-0.01483154,0.1536865,0.9880066,-0.02165222,0.09140015,0.995575,0.04357611,0.2023224,0.978349,
638503289689289075,1222357,106466,-0.0151062,0.1519775,0.988266,-0.02183533,0.09217834,0.9954987,0.04391702,0.2022968,0.9783391,
638503289689379065,1222366,106466,-0.01486206,0.1521454,0.9882355,-0.0222168,0.09225464,0.9954834,0.04391702,0.2022968,0.9783391,
638503289689459057,1222374,106467,-0.01655579,0.151474,0.9883118,-0.02133179,0.09202576,0.9955139,0.04372755,0.202488,0.978308,
638503289689539074,1222382,106468,-0.01663208,0.15242,0.9881744,-0.02166748,0.09197998,0.9955139,0.04399806,0.2025734,0.9782782,
638503289689629071,1222391,106469,-0.01838684,0.1571808,0.9873962,-0.02210999,0.09190369,0.9955139,0.04387674,0.202548,0.9782889,
638503289689709181,1222399,106469,-0.01957703,0.157135,0.987381,-0.02416992,0.09120178,0.9955292,0.04387674,0.202548,0.9782889,
638503289689789176,1222407,106470,-0.01968384,0.1571198,0.987381,-0.02441406,0.09107971,0.9955292,0.04373442,0.2030437,0.9781925,
638503289689889181,1222417,106471,-0.02027893,0.1559753,0.9875488,-0.02474976,0.09098816,0.9955292,0.04367114,0.2033621,0.9781292,
638503289689959194,1222424,106472,-0.02139282,0.1553345,0.9876251,-0.02539063,0.09106445,0.9955139,0.04353155,0.203774,0.9780497,
638503289690039183,1222432,106472,-0.02172852,0.154892,0.9876862,-0.02561951,0.09130859,0.9954834,0.04353155,0.203774,0.9780497,
638503289690129185,1222441,106473,-0.02328491,0.1550446,0.9876251,-0.02561951,0.0912323,0.9954987,0.04337365,0.2042568,0.977956,
638503289690219191,1222450,106474,-0.02319336,0.154129,0.9877777,-0.02555847,0.09059143,0.9955444,0.04322244,0.2045306,0.9779055,
638503289690299185,1222458,106475,-0.0231781,0.1539001,0.9878082,-0.02557373,0.09046936,0.9955597,0.04277968,0.2050511,0.9778159,
638503289690379186,1222466,106475,-0.02168274,0.154129,0.9878082,-0.02560425,0.0901947,0.9955902,0.04277968,0.2050511,0.9778159,
638503289690459176,1222474,106476,-0.02168274,0.154129,0.9878082,-0.02560425,0.09040833,0.995575,0.04256069,0.2055139,0.9777283,
638503289690539186,1222482,106477,-0.02174377,0.1534576,0.9878998,-0.02555847,0.08979797,0.9956207,0.0423933,0.205988,0.9776358,
638503289690639182,1222492,106478,-0.0216217,0.1512756,0.9882507,-0.02563477,0.08880615,0.9957123,0.04213377,0.2063691,0.9775667,
638503289690718534,1222500,106478,-0.02189636,0.1513367,0.9882355,-0.02575684,0.08976746,0.9956207,0.04213377,0.2063691,0.9775667,
638503289690788538,1222507,106479,-0.0223999,0.1509399,0.9882813,-0.02554321,0.09010315,0.9955902,0.04179516,0.2070269,0.9774421,
638503289690878535,1222516,106480,-0.02255249,0.1500702,0.9884033,-0.02572632,0.08935547,0.9956665,0.04170473,0.2078411,0.9772732,
638503289690968536,1222525,106481,-0.02168274,0.1560669,0.9875031,-0.01895142,0.09558105,0.9952393,0.04123782,0.2088185,0.9770846,
638503289691048522,1222533,106481,-0.02133179,0.2226105,0.9746704,-0.03588867,0.1518097,0.9877472,0.04123782,0.2088185,0.9770846,
638503289691128539,1222541,106482,-0.03529358,0.29599,0.9545288,-0.04344177,0.2448883,0.9685669,0.04118041,0.2101383,0.976804,
638503289691228526,1222551,106483,-0.03448486,0.3597412,0.9324036,-0.0643158,0.2953491,0.9532166,0.0408951,0.2122388,0.9763618,
638503289691288547,1222557,106483,-0.03964233,0.4285583,0.9026337,-0.07937622,0.3605347,0.9293518,0.0408951,0.2122388,0.9763618,
638503289691368533,1222565,106484,-0.0443573,0.4600525,0.8867645,-0.09591675,0.3929291,0.9145355,0.04094675,0.2163124,0.9754652,
638503289691468538,1222575,106485,-0.0463562,0.5065002,0.8609772,-0.0871582,0.4414215,0.8930359,0.04112054,0.2216132,0.9742672,
638503289691538529,1222582,106486,-0.06040955,0.5235901,0.8498077,-0.1039734,0.4496918,0.8871002,0.04115062,0.2292502,0.9724973,
638503289691688635,1222598,106486,-0.05757141,0.5226288,0.8506012,-0.04866028,0.4062347,0.9124603,0.04115062,0.2292502,0.9724973,
638503289691768632,1222605,106488,-0.06340027,0.5291138,0.8461609,-0.07914734,0.4476013,0.8907166,0.04075694,0.2434155,0.9690654,
638503289691838624,1222612,106489,-0.06196594,0.4983826,0.8647308,-0.08265686,0.4451141,0.8916473,0.04045619,0.249875,0.9674326,
638503289691898617,1222618,106489,-0.06738281,0.5057983,0.8600006,-0.0778656,0.442688,0.89328,0.04045619,0.249875,0.9674326,
638503289691968636,1222625,106490,-0.06326294,0.4997559,0.8638458,-0.08474731,0.4517517,0.888092,0.04019808,0.2550435,0.9660937,
638503289692038619,1222632,106490,-0.07836914,0.493927,0.8659515,-0.100647,0.4386139,0.8930054,0.04019808,0.2550435,0.9660937,
638503289692118631,1222640,106491,-0.06698608,0.4953461,0.8660889,-0.07710266,0.428009,0.9004669,0.03986687,0.2599808,0.9647905,
638503289692208620,1222649,106492,-0.07093811,0.4922485,0.8675537,-0.07383728,0.4315186,0.8990631,0.03972309,0.2645995,0.9635399,
638503289692288622,1222657,106493,-0.07060242,0.4925537,0.8674011,-0.06790161,0.4286652,0.9008942,0.03977129,0.2684648,0.9624681,
638503289692368622,1222665,106493,-0.0710144,0.4927673,0.8672485,-0.06500244,0.4197235,0.905304,0.03977129,0.2684648,0.9624681,
638503289692448617,1222673,106494,-0.07113647,0.489212,0.8692474,-0.05583191,0.4374084,0.8975067,0.03951597,0.2726336,0.9613061,
638503289692538618,1222682,106495,-0.07128906,0.4855957,0.8712616,-0.05514526,0.4240112,0.9039612,0.03959107,0.2765642,0.9601796,
638503289692618619,1222690,106496,-0.07191467,0.4879456,0.8699036,-0.04995728,0.418869,0.906662,0.03921539,0.2805567,0.959036,
638503289692698618,1222698,106496,-0.07255554,0.4902954,0.868515,-0.05528259,0.4115601,0.9096985,0.03921539,0.2805567,0.959036,
638503289692788627,1222707,106497,-0.0743103,0.4862518,0.870636,-0.05662537,0.4031067,0.9133911,0.03942936,0.2851631,0.9576676,
638503289692878625,1222716,106498,-0.07402039,0.4823456,0.8728333,-0.05070496,0.4012299,0.914566,0.03965719,0.2891848,0.9564515,
638503289692958632,1222724,106499,-0.0725708,0.4825287,0.8728638,-0.05278015,0.4012909,0.9144135,0.04003452,0.293233,0.9552024,
638503289693038621,1222732,106499,-0.07104492,0.482666,0.8729095,-0.06477356,0.3922729,0.9175568,0.04003452,0.293233,0.9552024,
638503289693119815,1222740,106500,-0.07156372,0.4734802,0.8778839,-0.06245422,0.3969269,0.9157104,0.04058431,0.2972313,0.9539426,
638503289693209819,1222749,106501,-0.07220459,0.4643707,0.8826752,-0.06111145,0.4006195,0.9141998,0.04098764,0.3013731,0.9526249,
638503289693289821,1222757,106502,-0.07255554,0.4676819,0.8809052,-0.05906677,0.399826,0.9146729,0.04175526,0.3057358,0.9512004,
638503289693369818,1222765,106502,-0.07289124,0.4709778,0.8791199,-0.05957031,0.3990631,0.914978,0.04175526,0.3057358,0.9512004,
638503289693449825,1222773,106503,-0.07460022,0.4655304,0.8818665,-0.05815125,0.3963623,0.9162445,0.04226547,0.3098252,0.9498537,
638503289693539827,1222782,106504,-0.0765686,0.4546814,0.8873444,-0.05923462,0.3937531,0.9172974,0.04267104,0.3134729,0.948638,
638503289693619820,1222790,106504,-0.07261658,0.4469147,0.8916168,-0.06344604,0.3782196,0.9235229,0.04267104,0.3134729,0.948638,
638503289693699817,1222798,106505,-0.07206726,0.454071,0.888031,-0.06069946,0.3805237,0.92276,0.04313852,0.3173789,0.9473171,
638503289693789814,1222807,106506,-0.06982422,0.4400024,0.8952637,-0.06411743,0.3772278,0.9238892,0.04380562,0.3210078,0.9460629,
638503289693869824,1222815,106507,-0.06982422,0.4367371,0.8968658,-0.0602417,0.3788605,0.9234772,0.04414155,0.3245818,0.9448271,
638503289693949823,1222823,106507,-0.06983948,0.4324951,0.8989105,-0.0655365,0.3669891,0.9279022,0.04414155,0.3245818,0.9448271,
638503289694039821,1222832,106508,-0.06884766,0.4216003,0.9041595,-0.07133484,0.3739014,0.9247131,0.04468688,0.3278397,0.9436759,
638503289694119279,1222840,106509,-0.06956482,0.4358978,0.8972931,-0.05723572,0.3635864,0.9297943,0.04517524,0.3312411,0.9424641,
638503289694199284,1222848,106510,-0.06958008,0.4358521,0.8973083,-0.06336975,0.3659668,0.9284515,0.04560347,0.3343064,0.9413605,
638503289694289278,1222857,106510,-0.0690918,0.4387817,0.8959198,-0.05639648,0.3604889,0.9310455,0.04560347,0.3343064,0.9413605,
638503289694369287,1222865,106511,-0.06866455,0.4368744,0.8968811,-0.06268311,0.3576965,0.9317169,0.04593315,0.337246,0.9402953,
638503289694459289,1222874,106512,-0.05815125,0.4365692,0.8977814,-0.06639099,0.3843384,0.9207916,0.04649125,0.3399638,0.9392887,
638503289694539274,1222882,106513,-0.06993103,0.4440613,0.8932495,-0.0614624,0.3888397,0.9192352,0.0470612,0.3424269,0.9383651,
638503289694629273,1222891,106513,-0.07791138,0.4407043,0.8942566,-0.06634521,0.3789063,0.9230499,0.0470612,0.3424269,0.9383651,
638503289694709279,1222899,106514,-0.07995605,0.4380951,0.8953552,-0.06570435,0.3773193,0.9237366,0.0473596,0.3451066,0.9373679,
638503289694789281,1222907,106515,-0.07929993,0.4355164,0.8966675,-0.06317139,0.3690491,0.9272461,0.04771714,0.3477183,0.936384,
638503289694869281,1222915,106516,-0.0766449,0.4393921,0.8950043,-0.06582642,0.3731079,0.9254456,0.04823056,0.3504113,0.9353533,
638503289694949278,1222923,106516,-0.07398987,0.4433441,0.89328,-0.06889343,0.373703,0.9249725,0.04823056,0.3504113,0.9353533,
638503289695039292,1222932,106517,-0.07289124,0.4425354,0.8937683,-0.06663513,0.3678589,0.927475,0.04878335,0.3529577,0.9343667,
638503289695118648,1222940,106518,-0.0730896,0.4420776,0.8939819,-0.0710907,0.365036,0.9282684,0.04921193,0.3552129,0.9334891,
638503289695208644,1222949,106519,-0.07223511,0.4400024,0.8950806,-0.06481934,0.368576,0.9273224,0.04952388,0.3573541,0.932655,
638503289695298647,1222958,106520,-0.0715332,0.4379578,0.8961334,-0.07162476,0.3683624,0.9269104,0.04974537,0.3592984,0.931896,
638503289695368655,1222965,106520,-0.07147217,0.4359589,0.89711,-0.0629425,0.3647003,0.9289856,0.04974537,0.3592984,0.931896,
638503289695458640,1222974,106521,-0.07177734,0.4340973,0.897995,-0.06095886,0.3601685,0.9308777,0.04971875,0.3609222,0.9312697,
638503289695538645,1222982,106522,-0.072052,0.4321136,0.8989258,-0.06155396,0.3575592,0.9318542,0.04975087,0.3622095,0.9307681,
638503289695618645,1222990,106522,-0.07243347,0.4302826,0.899765,-0.06149292,0.3556366,0.9325867,0.04975087,0.3622095,0.9307681,
638503289695708657,1222999,106523,-0.073349,0.4293823,0.9001312,-0.06192017,0.3585815,0.931427,0.04981703,0.3637059,0.9301808,
638503289695788661,1223007,106524,-0.07424927,0.4284363,0.9004974,-0.06190491,0.3621521,0.9300537,0.04981563,0.3646912,0.929795,
638503289695868651,1223015,106525,-0.07814026,0.4208832,0.9037323,-0.06211853,0.3614807,0.9302979,0.04958868,0.3658968,0.9293333,
638503289695968646,1223025,106525,-0.07818604,0.4197235,0.9042664,-0.06231689,0.3608398,0.9305267,0.04958868,0.3658968,0.9293333,
638503289696038648,1223032,106526,-0.07945251,0.4166412,0.9055786,-0.06210327,0.3597412,0.9309692,0.04939834,0.3666664,0.9290401,
638503289696118750,1223040,106527,-0.08027649,0.4027557,0.9117737,-0.06187439,0.3586578,0.9314117,0.04917676,0.36753,0.9287106,
638503289696208781,1223049,106528,-0.08079529,0.3986511,0.9135284,-0.06167603,0.3582001,0.9315948,0.04896926,0.368249,0.9284367,
638503289696288754,1223057,106528,-0.07835388,0.3937225,0.9158783,-0.06140137,0.3578186,0.9317627,0.04896926,0.368249,0.9284367,
638503289696368755,1223065,106529,-0.07844543,0.3903656,0.9172974,-0.06182861,0.3553314,0.9326782,0.04857661,0.3687997,0.9282387,
638503289696458750,1223074,106530,-0.07815552,0.3917084,0.916748,-0.06176758,0.3527985,0.9336548,0.04831778,0.369287,0.9280585,
638503289696548756,1223083,106531,-0.07922363,0.3922424,0.9164276,-0.06208801,0.3530731,0.9335175,0.04779065,0.3694787,0.9280095,
638503289696618761,1223090,106531,-0.07868958,0.3929596,0.9161682,-0.06242371,0.3533478,0.9333954,0.04779065,0.3694787,0.9280095,
638503289696708751,1223099,106532,-0.07865906,0.3863831,0.9189606,-0.06253052,0.3541412,0.9330902,0.04678332,0.3696592,0.9279889,
638503289696788757,1223107,106533,-0.07878113,0.3873596,0.9185486,-0.06219482,0.3492889,0.9349365,0.04546786,0.369379,0.9281659,
638503289696878756,1223116,106534,-0.07878113,0.3861847,0.9190369,-0.06211853,0.3484192,0.9352722,0.04299072,0.3689429,0.9284573,
638503289696958754,1223124,106534,-0.07897949,0.3852692,0.9194031,-0.06492615,0.3591461,0.931015,0.04299072,0.3689429,0.9284573,
638503289697038757,1223132,106535,-0.07897949,0.3853455,0.9193726,-0.0710907,0.3529663,0.9329224,0.03972179,0.368593,0.9287418,
638503289697128881,1223141,106536,-0.1125183,0.3800354,0.9180908,-0.1242218,0.3075256,0.9433899,0.03488027,0.367671,0.9293016,
638503289697208873,1223149,106537,-0.2054138,0.2997894,0.9316254,-0.1922607,0.250412,0.9488525,0.02924199,0.366653,0.9298981,
638503289697288878,1223157,106537,-0.2635193,0.2602234,0.9288788,-0.250824,0.2259827,0.9412689,0.02924199,0.366653,0.9298981,
638503289697368874,1223165,106538,-0.3103638,0.2112274,0.9268341,-0.2991028,0.158783,0.9409027,0.02177956,0.3651703,0.9306859,
638503289697458871,1223174,106539,-0.3803406,0.1762085,0.9078827,-0.3587036,0.1308441,0.9242249,0.01385634,0.3636699,0.9314249,
638503289697548876,1223183,106540,-0.4050293,0.1000671,0.9087982,-0.4057922,0.07174683,0.9111328,0.004298075,0.3618824,0.9322138,
638503289697628869,1223191,106540,-0.4686737,0.0692749,0.8806458,-0.4593201,0.05157471,0.8867645,0.004298075,0.3618824,0.9322138,
638503289697708985,1223199,106541,-0.5205231,0.02349854,0.8535156,-0.499527,0.01454163,0.8661652,-0.005659104,0.3601501,0.9328772,
638503289697789001,1223207,106542,-0.52388,0.01672363,0.8516235,-0.5306244,0.002975464,0.8475952,-0.01644539,0.3581144,0.9335328,
638503289697868999,1223215,106543,-0.5922546,0.01931763,0.8055115,-0.5705719,-0.02886963,0.8207245,-0.02750977,0.3564643,0.9339039,
638503289697958990,1223224,106543,-0.6120453,-0.02764893,0.790329,-0.6052551,-0.05033875,0.7944336,-0.02750977,0.3564643,0.9339039,
638503289698038986,1223232,106544,-0.6239929,-0.03770447,0.7805023,-0.6230316,-0.05888367,0.779953,-0.03961087,0.3546729,0.9341511,
638503289698119101,1223240,106545,0,0,0,-0.6231079,-0.0763855,0.7783813,-0.05189383,0.352949,0.9342024,
638503289698209108,1223249,106546,-0.6378937,-0.05702209,0.7679901,0,0,0,-0.06401834,0.351599,0.9339592,
638503289698299103,1223258,106546,-0.6181946,-0.04525757,0.7846985,-0.6100006,-0.09558105,0.7865906,-0.06401834,0.351599,0.9339592,
638503289698379101,1223266,106547,-0.619812,-0.03846741,0.783783,-0.6075287,-0.07289124,0.7909393,-0.07625058,0.350709,0.9333751,
638503289698459105,1223274,106548,-0.6145172,-0.04255676,0.7877502,-0.6032104,-0.06336975,0.7950592,-0.08806682,0.3498151,0.9326702,
638503289698549098,1223283,106549,-0.6225128,-0.04493713,0.781311,-0.5998077,-0.07502747,0.7966003,-0.09906248,0.3491359,0.9318212,
638503289698619106,1223290,106549,-0.6223907,-0.04751587,0.78125,-0.5955963,-0.07785034,0.7994843,-0.09906248,0.3491359,0.9318212,
638503289698709114,1223299,106550,-0.6112518,-0.06472778,0.7887726,-0.5833282,-0.07917786,0.8083649,-0.1102081,0.3484378,0.9308304,
638503289698789105,1223307,106551,-0.5971527,-0.06678772,0.7993317,-0.5816193,-0.07695007,0.8097992,-0.1204516,0.347936,0.9297483,
638503289698879108,1223316,106552,-0.5961304,-0.06723022,0.8000488,-0.5740967,-0.09880066,0.8127899,-0.1305059,0.3476091,0.9285129,
638503289698949103,1223323,106552,-0.5824127,-0.05752563,0.8108368,-0.5623779,-0.07922363,0.8230591,-0.1305059,0.3476091,0.9285129,
638503289699039106,1223332,106553,-0.5648193,-0.04519653,0.8239594,-0.5483093,-0.08592224,0.8318329,-0.1396922,0.3477203,0.9271336,
638503289699123891,1223341,106554,-0.5567169,-0.06973267,0.8277588,-0.5394135,-0.07739258,0.8384552,-0.1481885,0.348104,0.9256694,
638503289699209106,1223349,106555,-0.5643921,-0.06378174,0.8230286,-0.5425415,-0.08866882,0.8353119,-0.1560859,0.3488063,0.9241057,
638503289699289112,1223357,106555,-0.5544434,-0.06105042,0.8299561,-0.5410919,-0.1016846,0.8347778,-0.1560859,0.3488063,0.9241057,
638503289699369115,1223365,106556,-0.5503082,-0.05586243,0.8330841,-0.5174255,-0.08628845,0.8513489,-0.16369,0.3494723,0.9225371,
638503289699449104,1223373,106557,-0.5460052,-0.05371094,0.8360443,-0.5329132,-0.08547974,0.8418274,-0.1709048,0.3501132,0.9209844,
638503289699549104,1223383,106558,-0.5253143,-0.04293823,0.8498077,-0.5068054,-0.08372498,0.8579712,-0.1775301,0.3508229,0.9194598,
638503289699619114,1223390,106558,-0.5068665,-0.0612793,0.8598328,-0.505661,-0.08071899,0.8589325,-0.1775301,0.3508229,0.9194598,
638503289699709102,1223399,106559,-0.5044556,-0.06204224,0.8611908,-0.5056915,-0.09716797,0.8572083,-0.1838744,0.3513433,0.9180132,
638503289699789124,1223407,106560,-0.5033417,-0.06939697,0.8612823,-0.4915009,-0.0958252,0.8655701,-0.1895759,0.3521317,0.9165502,
638503289699869113,1223415,106561,-0.5031128,-0.07978821,0.8605194,-0.4994812,-0.08459473,0.8621826,-0.195111,0.3528572,0.9151085,
638503289699959108,1223424,106561,-0.4942474,-0.0715332,0.8663635,-0.4845428,-0.1039734,0.8685455,-0.195111,0.3528572,0.9151085,
638503289700039124,1223432,106562,-0.4864349,-0.06547546,0.8712463,-0.4792175,-0.08357239,0.8736877,-0.2001905,0.3539183,0.9136004,
638503289700124082,1223441,106563,-0.4829102,-0.06126404,0.8735046,-0.4767914,-0.0891571,0.8744659,-0.2049316,0.3548926,0.9121701,
638503289700219254,1223450,106564,-0.4834442,-0.06907654,0.8726349,-0.4721832,-0.07713318,0.8781128,-0.2095122,0.355686,0.9108195,
638503289700299252,1223458,106564,-0.460968,-0.07025146,0.884613,-0.4639282,-0.08480835,0.8817902,-0.2095122,0.355686,0.9108195,
638503289700369250,1223465,106565,-0.4511871,-0.06907654,0.88974,-0.4459381,-0.09378052,0.8901215,-0.2137763,0.3566334,0.9094571,
638503289700449244,1223473,106566,-0.4560852,-0.06941223,0.887207,-0.4494934,-0.1024475,0.8873749,-0.2183193,0.3572223,0.9081458,
638503289700549253,1223483,106567,-0.4402161,-0.07780457,0.8945007,-0.4443359,-0.09402466,0.8908997,-0.2220931,0.3577893,0.9070069,
638503289700619262,1223490,106567,-0.4437256,-0.06149292,0.894043,-0.4420166,-0.09176636,0.8922882,-0.2220931,0.3577893,0.9070069,
638503289700699243,1223498,106568,-0.445343,-0.06716919,0.8928223,-0.4373322,-0.1063995,0.8929749,-0.2259327,0.3580159,0.9059685,
638503289700789255,1223507,106569,-0.4309692,-0.06465149,0.9000397,-0.4300079,-0.1003418,0.8972168,-0.2298156,0.3580569,0.9049752,
638503289700869251,1223515,106570,-0.4351501,-0.07307434,0.8973846,-0.433075,-0.10672,0.8950043,-0.2336938,0.3576804,0.9041305,
638503289700949252,1223523,106570,-0.412323,-0.06100464,0.9089813,-0.4326019,-0.1015625,0.8958282,-0.2336938,0.3576804,0.9041305,
638503289701039243,1223532,106571,-0.4400482,-0.0643158,0.8956604,-0.4362335,-0.08876038,0.8954315,-0.2373179,0.3571229,0.9034066,
638503289701123434,1223540,106572,-0.4257813,-0.04927063,0.9034729,-0.429718,-0.09864807,0.8975525,-0.2407678,0.3563194,0.9028108,
638503289701208598,1223549,106573,-0.428894,-0.07603455,0.9001312,-0.4335632,-0.08602905,0.8969879,-0.2441652,0.3554631,0.9022357,
638503289701288598,1223557,106573,-0.4188538,-0.07292175,0.9051056,-0.425827,-0.08912659,0.9003906,-0.2441652,0.3554631,0.9022357,
638503289701368597,1223565,106574,-0.4253082,-0.05986023,0.9030609,-0.427063,-0.08421326,0.9002838,-0.2472541,0.3546808,0.9017022,
638503289701448598,1223573,106575,-0.4130707,-0.05918884,0.9087677,-0.4318542,-0.08920288,0.8975067,-0.250351,0.353969,0.9011273,
638503289701548599,1223583,106576,-0.4013214,-0.05621338,0.9141998,-0.4198151,-0.08480835,0.9036255,-0.2530629,0.3536425,0.9004977,
638503289701618601,1223590,106576,-0.4043884,-0.06468201,0.9122925,-0.4096222,-0.07922363,0.9087982,-0.2530629,0.3536425,0.9004977,
638503289701708733,1223599,106577,-0.3887329,-0.06190491,0.9192505,-0.4052124,-0.08293152,0.9104462,-0.2560251,0.3530034,0.899911,
638503289701788738,1223607,106578,-0.397522,-0.06906128,0.914978,-0.4064331,-0.08744812,0.9094696,-0.2584318,0.3528134,0.8992974,
638503289701868753,1223615,106579,-0.3892212,-0.05612183,0.9194183,-0.3980408,-0.08509827,0.9134064,-0.2611524,0.3524735,0.8986444,
