time(100ns),time_stamp(ms),frame,gaze_direct_L.x,gaze_direct_L.y,gaze_direct_L.z,gaze_direct_R.x,gaze_direct_R.y,gaze_direct_R.z,forward.x,forward.y,forward.z,
638524907694520948,238405,16358,-0.007095337,0.1720734,0.9850464,0.001724243,0.1693115,0.9855499,-0.01141876,0.1236463,0.9922606,
638524907694610956,238414,16359,-0.007034302,0.1720428,0.9850616,-0.00579834,0.1642456,0.9863892,-0.01108878,0.1229353,0.9923527,
638524907694700970,238423,16360,-0.006988525,0.1720886,0.9850464,-0.002700806,0.1790924,0.9838257,-0.01059425,0.1224126,0.9924228,
638524907694770956,238430,16361,-0.007003784,0.1730042,0.9848938,-0.002410889,0.1720276,0.9850769,-0.009786336,0.1233058,0.9923205,
638524907694860945,238439,16361,-0.006988525,0.1721344,0.9850464,-0.00390625,0.1704407,0.9853516,-0.009786336,0.1233058,0.9923205,
638524907694940939,238447,16362,-0.00390625,0.1719971,0.9850769,-0.002258301,0.1698761,0.9854584,-0.009095131,0.1242446,0.99221,
638524907695030948,238456,16363,-0.006072998,0.1710968,0.9852295,0.0009613037,0.1702728,0.9853821,-0.008000594,0.1245771,0.9921777,
638524907695120952,238465,16364,-0.01457214,0.1814423,0.9832916,0.0001678467,0.1809082,0.98349,-0.008053402,0.1250809,0.9921139,
638524907695190961,238472,16364,-0.02073669,0.1732483,0.9846497,-0.0115509,0.1743317,0.9846039,-0.008053402,0.1250809,0.9921139,
638524907695270940,238480,16365,-0.01780701,0.1735687,0.9846497,-0.004074097,0.1810303,0.9834595,-0.008908752,0.1256458,0.9920352,
638524907695370948,238490,16366,-0.0214386,0.1838226,0.9827118,-0.006469727,0.1801147,0.9836121,-0.01024929,0.1257065,0.9920145,
638524907695440946,238497,16367,-0.02729797,0.1842957,0.9824829,-0.005950928,0.1772919,0.9841309,-0.01091095,0.1255188,0.9920312,
638524907695520941,238505,16367,-0.02326965,0.1830597,0.9828186,-0.01176453,0.1733704,0.9847717,-0.01091095,0.1255188,0.9920312,
638524907695610940,238514,16368,-0.03172302,0.1807556,0.9830017,-0.0007629395,0.1768799,0.9842224,-0.01122124,0.1252368,0.9920634,
638524907695690948,238522,16369,-0.02323914,0.1838531,0.982666,-0.007476807,0.1759338,0.9843597,-0.01108715,0.1251069,0.9920813,
638524907695770944,238530,16370,-0.02175903,0.1820374,0.9830475,-0.01565552,0.1809387,0.9833527,-0.01068457,0.1254792,0.9920387,
638524907695860958,238539,16370,-0.02122498,0.1731262,0.9846649,-0.003631592,0.1744232,0.9846497,-0.01068457,0.1254792,0.9920387,
638524907695940943,238547,16371,-0.02737427,0.1861572,0.982132,-0.005340576,0.1797028,0.9837036,-0.01059836,0.1258163,0.9919969,
638524907696030959,238556,16372,-0.02305603,0.1784668,0.9836731,-0.01168823,0.1749725,0.9844971,-0.01147158,0.1263667,0.9919173,
638524907696120944,238565,16373,-0.02326965,0.187561,0.9819641,-0.0151062,0.1662292,0.9859619,-0.01238289,0.1263153,0.9919128,
638524907696190963,238572,16373,-0.008865356,0.1823578,0.9831848,-0.003097534,0.1748505,0.9845886,-0.01238289,0.1263153,0.9919128,
638524907696270937,238580,16374,-0.0202179,0.1858521,0.9823608,0.001693726,0.1751251,0.9845276,-0.01352614,0.1256839,0.9919781,
638524907696360962,238589,16375,-0.01332092,0.168808,0.9855499,-0.003234863,0.1737671,0.9847717,-0.01324683,0.1250506,0.9920619,
638524907696440958,238597,16376,-0.02755737,0.1860199,0.9821472,-0.00050354,0.1786652,0.983902,-0.01271088,0.1249652,0.9920797,
638524907696520937,238605,16376,-0.02125549,0.1634369,0.9863129,0.001525879,0.1633148,0.986557,-0.01271088,0.1249652,0.9920797,
638524907696610938,238614,16377,-0.008102417,0.1268616,0.9918823,-0.0002746582,0.1527863,0.9882507,-0.01195405,0.125389,0.9920356,
638524907696700947,238623,16378,0,0,0,0.03027344,0.1407471,0.9895782,-0.01153743,0.1258142,0.9919868,
638524907696760952,238629,16379,0,0,0,0,0,0,-0.01134661,0.1262812,0.9919296,
638524907696850939,238638,16379,0,0,0,0,0,0,-0.01134661,0.1262812,0.9919296,
638524907696930940,238646,16380,0,0,0,0,0,0,-0.01155902,0.1263868,0.9919137,
638524907697000962,238653,16381,0,0,0,0,0,0,-0.01166791,0.1264513,0.9919042,
638524907697090940,238662,16382,0,0,0,0,0,0,-0.01150099,0.1266696,0.9918783,
638524907697180934,238671,16382,0,0,0,0,0,0,-0.01150099,0.1266696,0.9918783,
638524907697270941,238680,16383,0,0,0,0,0,0,-0.01169566,0.1267026,0.9918718,
638524907697340956,238687,16384,0,0,0,0,0,0,-0.01165217,0.1267726,0.9918634,
638524907697420942,238695,16384,0,0,0,0,0,0,-0.01165217,0.1267726,0.9918634,
638524907697500937,238703,16385,0,0,0,0,0,0,-0.0113543,0.1266194,0.9918864,
638524907697590942,238712,16386,0,0,0,0,0,0,-0.0111148,0.12619,0.9919438,
638524907697680966,238721,16387,0,0,0,0,0,0,-0.01042863,0.1258724,0.9919916,
638524907697750947,238728,16387,0,0,0,0,0,0,-0.01042863,0.1258724,0.9919916,
638524907697840936,238737,16388,0,0,0,0,0,0,-0.009818038,0.125629,0.9920287,
638524907697930941,238746,16389,0,0,0,0,0,0,-0.009132888,0.1253351,0.9920725,
638524907698010947,238754,16390,0,0,0,0,0,0,-0.00836712,0.1246143,0.99217,
638524907698100952,238763,16391,0,0,0,0,0,0,-0.007605434,0.1238691,0.9922695,
638524907698190947,238772,16391,0,0,0,0,0,0,-0.007605434,0.1238691,0.9922695,
638524907698270951,238780,16392,0,0,0,0,0,0,-0.006577433,0.1230673,0.9923765,
638524907698360942,238789,16393,0,0,0,0,0,0,-0.00534629,0.1222958,0.9924793,
638524907698440940,238797,16394,0,0,0,0,0,0,-0.003905251,0.1213081,0.9926072,
638524907698540936,238807,16394,0,0,0,0,0,0,-0.003905251,0.1213081,0.9926072,
638524907698610950,238814,16395,0,0,0,0,0,0,-0.002144091,0.1199474,0.9927779,
638524907698690966,238822,16396,0,0,0,0,0,0,-8.760297E-06,0.1184186,0.9929638,
638524907698780950,238831,16397,0.07746887,0.05732727,0.9953308,0.07641602,0.05480957,0.9955597,0.00214194,0.1168706,0.9931449,
638524907698870939,238840,16397,0.07141113,0.05838013,0.9957275,0.076828,0.06530762,0.9948883,0.00214194,0.1168706,0.9931449,
638524907698940950,238847,16398,0.07069397,0.05955505,0.9957123,0.09197998,0.07165527,0.9931641,0.004723758,0.1154439,0.9933028,
638524907699020962,238855,16399,0.06962585,0.05001831,0.9963074,0.08688354,0.0579071,0.9945221,0.007588556,0.1145128,0.9933928,
638524907699110944,238864,16400,0.06944275,0.07070923,0.9950714,0.09983826,0.05665588,0.9933777,0.01093367,0.1144253,0.9933717,
638524907699200943,238873,16400,0.07116699,0.06251526,0.9954987,0.1000214,0.05596924,0.9934082,0.01093367,0.1144253,0.9933717,
638524907699280944,238881,16401,0.07646179,0.07223511,0.9944458,0.09754944,0.05145264,0.9938965,0.01506538,0.1140562,0.99336,
638524907699370939,238890,16402,0.07496643,0.06932068,0.9947662,0.0947876,0.0473175,0.9943695,0.01955585,0.1131975,0.99338,
638524907699440951,238897,16402,0.07128906,0.06478882,0.9953461,0.09210205,0.06529236,0.9935913,0.01955585,0.1131975,0.99338,
638524907699530935,238906,16403,0.07522583,0.0660553,0.9949646,0.08865356,0.06590271,0.993866,0.02428344,0.111765,0.9934379,
638524907699610952,238914,16404,0.07958984,0.06298828,0.9948273,0.08988953,0.06254578,0.9939728,0.02990156,0.1098445,0.9934989,
638524907699700955,238923,16405,0.07429504,0.06318665,0.995224,0.09735107,0.05239868,0.993866,0.03559868,0.1077671,0.9935386,
638524907699780941,238931,16405,0.07673645,0.0589447,0.9953003,0.09661865,0.05029297,0.9940491,0.03559868,0.1077671,0.9935386,
638524907699860941,238939,16406,0.07913208,0.06063843,0.9950104,0.09965515,0.05271912,0.9936218,0.04087383,0.1061662,0.993508,
638524907699940945,238947,16407,0.08067322,0.056427,0.9951324,0.092453,0.06506348,0.993576,0.04620632,0.1042873,0.9934733,
638524907700020949,238955,16408,0.07626343,0.05252075,0.995697,0.09750366,0.06915283,0.9928131,0.0516747,0.1025045,0.9933894,
638524907700110943,238964,16408,0.06889343,0.0433197,0.9966736,0.08709717,0.05288696,0.9947815,0.0516747,0.1025045,0.9933894,
638524907700190943,238972,16409,0.07382202,0.05403137,0.9958038,0.1005096,0.04888916,0.9937286,0.0571126,0.1008198,0.9932641,
638524907700270948,238980,16410,0.06962585,0.04190063,0.9966888,0.08569336,0.04866028,0.9951172,0.06281778,0.09892787,0.9931099,
638524907700370945,238990,16411,0.06980896,0.04467773,0.9965515,0.08911133,0.05319214,0.9945984,0.0685834,0.09704231,0.9929144,
638524907700440940,238997,16411,0.06245422,0.04171753,0.9971619,0.08358765,0.05451965,0.9949951,0.0685834,0.09704231,0.9929144,
638524907700520957,239005,16412,0.0620575,0.04403687,0.9970856,0.08586121,0.03756714,0.9955902,0.0741018,0.09489246,0.9927257,
638524907700620958,239015,16413,0.06933594,0.04335022,0.9966431,0.09474182,0.03691101,0.994812,0.07970183,0.09230018,0.9925363,
638524907700700958,239023,16414,0.07301331,0.008026123,0.9972839,0.09317017,0.03746033,0.9949341,0.08498338,0.08974121,0.9923328,
638524907700770940,239030,16414,0.07165527,0.02334595,0.9971466,0.09161377,0.03683472,0.9951019,0.08498338,0.08974121,0.9923328,
638524907700860938,239039,16415,0.07002258,0.009078979,0.9974976,0.08659363,0.03689575,0.9955444,0.08969726,0.08694816,0.9921665,
638524907700940941,239047,16416,0.0697937,0.01329041,0.997467,0.08164978,0.03701782,0.9959717,0.09501046,0.08425008,0.9919047,
638524907701030948,239056,16417,0.06968689,0.00881958,0.9975281,0.08221436,0.03807068,0.9958801,0.1003163,0.08188345,0.9915804,
638524907701120940,239065,16418,0.06742859,0.01289368,0.9976349,0.08262634,0.03889465,0.9958191,0.1053905,0.07911009,0.9912792,
638524907701200950,239073,16418,0.0509491,0.0113678,0.9986267,0.07627869,0.03421021,0.9964905,0.1053905,0.07911009,0.9912792,
638524907701280951,239081,16419,0.05422974,0.01661682,0.9983826,0.07142639,0.0365448,0.9967651,0.1102008,0.07602008,0.9909979,
638524907701370956,239090,16420,0.06008911,0.02172852,0.9979553,0.06967163,0.03945923,0.9967804,0.1150727,0.0720416,0.9907413,
638524907701440944,239097,16420,0.05625916,0.02215576,0.9981689,0.07449341,0.04058838,0.9963837,0.1150727,0.0720416,0.9907413,
638524907701520942,239105,16421,0.05603027,0.02339172,0.9981537,0.06799316,0.03738403,0.9969788,0.1197565,0.06810866,0.9904643,
638524907701610941,239114,16422,0.05555725,0.02487183,0.9981384,0.07156372,0.03866577,0.9966736,0.1243488,0.06423341,0.9901573,
638524907701690953,239122,16423,0.05630493,0.01896667,0.99823,0.06976318,0.04013062,0.9967499,0.1286774,0.06010936,0.9898631,
638524907701780946,239131,16423,0.05705261,0.01319885,0.9982758,0.0696106,0.04096985,0.9967194,0.1286774,0.06010936,0.9898631,
638524907701860960,239139,16424,0.05682373,0.01473999,0.9982605,0.07296753,0.03427124,0.9967346,0.1334489,0.05625373,0.9894579,
638524907701950941,239148,16425,0.05662537,0.01512146,0.9982758,0.06130981,0.03364563,0.9975433,0.1377276,0.05248794,0.9890784,
638524907702040963,239157,16426,0.05355835,0.01554871,0.9984283,0.06088257,0.03096008,0.9976501,0.1415339,0.04889468,0.9887252,
638524907702110950,239164,16426,0.05049133,0.01593018,0.9985962,0.05880737,0.03216553,0.9977417,0.1415339,0.04889468,0.9887252,
638524907702190938,239172,16427,0.04318237,0.007293701,0.9990387,0.05900574,0.04081726,0.9974213,0.1458164,0.04486993,0.9882936,
638524907702270957,239180,16428,0.04614258,0.004882813,0.9989166,0.06018066,0.0350647,0.9975586,0.1498392,0.04076636,0.9878696,
638524907702360941,239189,16429,0.04928589,0.01148987,0.998703,0.05889893,0.03300476,0.9977112,0.1532745,0.03658093,0.9875063,
638524907702440952,239197,16429,0.04344177,0.006591797,0.9990234,0.06694031,0.02787781,0.9973602,0.1532745,0.03658093,0.9875063,
638524907702520956,239205,16430,0.04521179,0.01339722,0.9988861,0.06018066,0.0413208,0.9973297,0.156741,0.03206347,0.9871191,
638524907702610942,239214,16431,0.03289795,0.03543091,0.9988251,0.05841064,0.04216003,0.9973907,0.1600208,0.02739839,0.9867333,
638524907702690948,239222,16432,0.04057312,0.02487183,0.9988556,0.05838013,0.0393219,0.9975128,0.1630504,0.0232258,0.9863443,
638524907702770942,239230,16432,0.03656006,0.02453613,0.9990234,0.05480957,0.04455566,0.9974976,0.1630504,0.0232258,0.9863443,
638524907702860941,239239,16433,0.03253174,0.02554321,0.9991302,0.04814148,0.04203796,0.9979401,0.1656363,0.01896932,0.9860045,
638524907702950953,239248,16434,0.03271484,0.02505493,0.9991455,0.06161499,0.03190613,0.9975891,0.1676663,0.01396209,0.985745,
638524907703020964,239255,16435,0.03604126,0.02424622,0.999054,0.0559845,0.05084229,0.9971313,0.1702841,0.008469552,0.9853586,
638524907703100944,239263,16435,0.02702332,0.02597046,0.9992828,0.05241394,0.04399109,0.9976501,0.1702841,0.008469552,0.9853586,
638524907703190939,239272,16436,0.03373718,0.02482605,0.999115,0.05195618,0.0377655,0.9979248,0.1726055,0.002759082,0.9849871,
638524907703280948,239281,16437,0.03866577,0.02703857,0.9988708,0.05284119,0.03929138,0.997818,0.175,-0.002944826,0.984564,
638524907703360945,239289,16438,0.03709412,0.02760315,0.9989166,0.05825806,0.04733276,0.9971771,0.1777089,-0.007980895,0.9840508,
638524907703440938,239297,16438,0.03575134,0.02879333,0.9989319,0.05685425,0.0484314,0.9971924,0.1777089,-0.007980895,0.9840508,
638524907703520938,239305,16439,0.03756714,0.02972412,0.9988403,0.05584717,0.05291748,0.9970245,0.1799779,-0.01315022,0.9835827,
638524907703610942,239314,16440,0.03671265,0.02761841,0.9989319,0.05224609,0.04954529,0.9973907,0.1821537,-0.01801702,0.983105,
638524907703700960,239323,16441,0.03720093,0.02609253,0.9989624,0.05548096,0.05606079,0.9968719,0.1843142,-0.02302058,0.9825978,
638524907703770946,239330,16441,0.03717041,0.02761841,0.9989166,0.05374146,0.05581665,0.9969788,0.1843142,-0.02302058,0.9825978,
638524907703860940,239339,16442,0.0369873,0.02905273,0.9988861,0.05517578,0.05497742,0.9969482,0.1867132,-0.02842841,0.982003,
638524907703940943,239347,16443,0.03678894,0.02851868,0.9989014,0.05601501,0.05752563,0.9967651,0.1896605,-0.03371389,0.9812707,
638524907704020952,239355,16444,0.03663635,0.02912903,0.9989014,0.05610657,0.0567627,0.9967957,0.1922908,-0.03905256,0.9805606,
638524907704110942,239364,16444,0.03639221,0.02914429,0.9989014,0.05479431,0.05752563,0.9968262,0.1922908,-0.03905256,0.9805606,
638524907704190944,239372,16445,0.03669739,0.02903748,0.9989014,0.05265808,0.06054688,0.9967651,0.1957181,-0.04420699,0.9796633,
638524907704270940,239380,16446,0.0369873,0.02897644,0.9988861,0.06007385,0.05973816,0.9963989,0.1987312,-0.04923163,0.9788167,
638524907704360957,239389,16447,0.03723145,0.03102112,0.9988098,0.05142212,0.05758667,0.9970093,0.2015306,-0.0538434,0.9780012,
638524907704440937,239397,16447,0.03738403,0.03033447,0.9988251,0.06109619,0.05131531,0.9967957,0.2015306,-0.0538434,0.9780012,
638524907704520944,239405,16448,0.03747559,0.03102112,0.9988098,0.0642395,0.0480957,0.9967651,0.2045767,-0.05838615,0.9771077,
638524907704600941,239413,16449,0.03764343,0.0340271,0.998703,0.06291199,0.0513916,0.9966888,0.2076268,-0.06300488,0.976177,
638524907704690961,239422,16450,0.03684998,0.03240967,0.9987946,0.06149292,0.04823303,0.996933,0.2107847,-0.06725816,0.975216,
638524907704770941,239430,16450,0.03594971,0.03182983,0.9988403,0.06141663,0.05012512,0.9968414,0.2107847,-0.06725816,0.975216,
638524907704870936,239440,16451,0.03691101,0.03303528,0.998764,0.06111145,0.05282593,0.9967194,0.2140375,-0.07152875,0.9742031,
638524907704940941,239447,16452,0.04045105,0.03770447,0.9984589,0.06034851,0.05230713,0.9967957,0.2173356,-0.07558842,0.9731658,
638524907705020944,239455,16453,0.04077148,0.03297424,0.9986115,0.05947876,0.0528717,0.9968262,0.2205369,-0.07982334,0.9721068,
638524907705110938,239464,16453,0.04255676,0.0382843,0.9983521,0.04995728,0.0589447,0.9970093,0.2205369,-0.07982334,0.9721068,
638524907705190962,239472,16454,0.04032898,0.03323364,0.9986267,0.05291748,0.05621338,0.9970093,0.2238922,-0.08362025,0.97102,
638524907705270953,239480,16455,0.03869629,0.03831482,0.9985046,0.04611206,0.05177307,0.9975891,0.2270366,-0.0877386,0.9699259,
638524907705360946,239489,16456,0.03717041,0.04159546,0.9984283,0.04737854,0.05264282,0.9974823,0.2302548,-0.09177575,0.968793,
638524907705440951,239497,16456,0.03636169,0.040802,0.9985046,0.04837036,0.05297852,0.9974213,0.2302548,-0.09177575,0.968793,
638524907705520944,239505,16457,0.03553772,0.0435791,0.9984131,0.0488739,0.05174255,0.9974518,0.2335377,-0.09614662,0.9675825,
638524907705610942,239514,16458,0.03695679,0.04402161,0.9983368,0.04954529,0.05247498,0.9973907,0.2365928,-0.1005785,0.9663891,
638524907705700964,239523,16459,0.03807068,0.04589844,0.9982147,0.05020142,0.05427551,0.9972534,0.239699,-0.1053223,0.9651174,
638524907705770940,239530,16459,0.03709412,0.04598999,0.9982452,0.0506134,0.0556488,0.9971619,0.239699,-0.1053223,0.9651174,
638524907705870935,239540,16460,0.03546143,0.04283142,0.9984436,0.04698181,0.05078125,0.9975891,0.2429306,-0.110098,0.9637755,
638524907705950949,239548,16461,0.03514099,0.05517578,0.9978485,0.04515076,0.04937744,0.997757,0.2458529,-0.114276,0.9625473,
638524907706020951,239555,16462,0.0332489,0.04760742,0.9983063,0.04420471,0.04556274,0.9979706,0.2491023,-0.118081,0.9612517,
638524907706110943,239564,16462,0.0349884,0.06451416,0.9972992,0.04397583,0.05049133,0.9977417,0.2491023,-0.118081,0.9612517,
638524907706190950,239572,16463,0.01922607,0.06274414,0.9978333,0.04963684,0.06155396,0.9968567,0.251928,-0.1209126,0.9601627,
638524907706270965,239580,16464,0.01350403,0.0718689,0.9973145,0.04582214,0.05685425,0.9973145,0.2554355,-0.1242404,0.9588102,
638524907706360959,239589,16465,0.01525879,0.06503296,0.997757,0.04450989,0.05511475,0.9974823,0.2590255,-0.1292254,0.9571868,
638524907706440942,239597,16465,0.02357483,0.06987,0.9972687,0.05049133,0.05734253,0.9970703,0.2590255,-0.1292254,0.9571868,
638524907706520942,239605,16466,0.02282715,0.0667572,0.9974976,0.04519653,0.05938721,0.9972076,0.2628047,-0.1343114,0.9554549,
638524907706600951,239613,16467,0.02345276,0.08320618,0.9962463,0.0460968,0.05479431,0.9974213,0.2658698,-0.1396559,0.9538394,
638524907706690959,239622,16468,0.01945496,0.06112671,0.9979248,0.04530334,0.05519104,0.9974365,0.2690283,-0.145004,0.9521542,
638524907706770940,239630,16468,0.03926086,0.03474426,0.9986115,0.05429077,0.04641724,0.9974365,0.2690283,-0.145004,0.9521542,
638524907706850947,239638,16469,0.07818604,0.01454163,0.9968262,0.08248901,0.03387451,0.9960022,0.2713901,-0.1500456,0.9507017,
638524907706940966,239647,16470,0.07644653,-0.01390076,0.9969635,0.09141541,0.02481079,0.9954987,0.2734912,-0.1553979,0.9492387,
638524907707020952,239655,16471,0.09317017,-0.02398682,0.9953461,0.0864563,0.001373291,0.9962463,0.2757157,-0.1608851,0.9476797,
638524907707100948,239663,16471,0.08702087,-0.01263428,0.9961243,0.08229065,-0.01853943,0.9964294,0.2757157,-0.1608851,0.9476797,
638524907707190943,239672,16472,0.0866394,-0.01615906,0.9960938,0.08044434,-0.01208496,0.9966736,0.2779818,-0.166334,0.9460756,
638524907707270956,239680,16473,0.08467102,-0.03382874,0.9958191,0.08258057,-0.01174927,0.9965057,0.2806081,-0.1716051,0.9443573,
638524907707350953,239688,16474,0.08576965,-0.02009583,0.996109,0.08357239,-0.01043701,0.9964447,0.2831392,-0.1767038,0.94266,
638524907707440946,239697,16474,0.08052063,-0.01699829,0.9965973,0.08293152,-0.01000977,0.9964905,0.2831392,-0.1767038,0.94266,
638524907707520940,239705,16475,0.0871582,-0.02096558,0.9959717,0.0836792,-0.009338379,0.9964447,0.2858755,-0.1820768,0.9408099,
638524907707600947,239713,16476,0.08058167,-0.01402283,0.9966431,0.08390808,-0.008758545,0.9964294,0.2884435,-0.1877638,0.9389064,
638524907707690963,239722,16477,0.07626343,-0.01078796,0.9970245,0.0831604,-0.003753662,0.996521,0.2910803,-0.1935377,0.936918,
638524907707770943,239730,16477,0.07640076,-0.00743103,0.9970398,0.08241272,0.001327515,0.996582,0.2910803,-0.1935377,0.936918,
638524907707860947,239739,16478,0.07666016,-0.007705688,0.9970245,0.07853699,0.003158569,0.9969025,0.293579,-0.1991346,0.9349635,
638524907707940946,239747,16479,0.07640076,-0.007980347,0.9970398,0.074646,0.005004883,0.9971924,0.2959678,-0.2041139,0.9331348,
638524907708030946,239756,16480,0.07595825,-0.00402832,0.9971008,0.07785034,0.006591797,0.996933,0.2987771,-0.2086829,0.931227,
638524907708110932,239764,16480,0.0735321,0.007949829,0.9972534,0.08108521,0.008209229,0.9966583,0.2987771,-0.2086829,0.931227,
