time(100ns),time_stamp(ms),frame,gaze_direct_L.x,gaze_direct_L.y,gaze_direct_L.z,gaze_direct_R.x,gaze_direct_R.y,gaze_direct_R.z,forward.x,forward.y,forward.z,
638503290681504163,1321579,115398,-0.01493835,0.1575623,0.987381,-0.02154541,0.1016846,0.9945679,0.04297393,0.200711,0.9787075,
638503290681584158,1321587,115399,-0.01560974,0.1560059,0.9876251,-0.02157593,0.1018677,0.9945526,0.04287362,0.200671,0.9787201,
638503290681674162,1321596,115400,-0.01571655,0.153656,0.9879913,-0.02186584,0.102005,0.9945374,0.04290505,0.2005134,0.978751,
638503290681764159,1321605,115401,-0.01564026,0.1531372,0.9880676,-0.02198792,0.1025696,0.9944763,0.04295612,0.2003659,0.978779,
638503290681834163,1321612,115402,-0.01571655,0.1550903,0.9877625,-0.02272034,0.1021729,0.9944916,0.04279597,0.2001922,0.9788215,
638503290681924169,1321621,115402,-0.01628113,0.1561737,0.9875946,-0.02256775,0.1046753,0.9942474,0.04279597,0.2001922,0.9788215,
638503290682004161,1321629,115403,-0.01591492,0.1546021,0.9878387,-0.0222168,0.1038361,0.994339,0.04290089,0.2000654,0.9788429,
638503290682094159,1321638,115404,-0.01522827,0.1557312,0.9876709,-0.02256775,0.103302,0.9943848,0.04260675,0.2001927,0.9788297,
638503290682184168,1321647,115405,-0.01496887,0.155777,0.9876709,-0.0226593,0.1028442,0.9944305,0.04254238,0.200099,0.9788516,
638503290682254166,1321654,115405,-0.01483154,0.155426,0.9877319,-0.02284241,0.102356,0.9944763,0.04254238,0.200099,0.9788516,
638503290682354162,1321664,115406,-0.01483154,0.155899,0.9876556,-0.02227783,0.1018372,0.9945374,0.042867,0.1998325,0.9788919,
638503290682434151,1321672,115407,-0.0151062,0.1521912,0.9882355,-0.0223999,0.102417,0.9944763,0.04325873,0.1994022,0.9789624,
638503290682504156,1321679,115407,-0.0148468,0.1513062,0.9883728,-0.02223206,0.1020813,0.9945221,0.04325873,0.1994022,0.9789624,
638503290682584162,1321687,115408,-0.0148468,0.1511688,0.9883881,-0.02165222,0.1026764,0.9944763,0.04364118,0.1991078,0.9790054,
638503290682674170,1321696,115409,-0.01365662,0.1509857,0.9884338,-0.02178955,0.101181,0.9946289,0.04388556,0.1985381,0.9791102,
638503290682754161,1321704,115410,-0.0118866,0.1509247,0.9884644,-0.02209473,0.1005096,0.9946747,0.04414625,0.1980913,0.9791889,
638503290682834175,1321712,115411,-0.01170349,0.1510468,0.9884491,-0.02212524,0.1006317,0.9946747,0.04424902,0.1976233,0.9792789,
638503290682924168,1321721,115411,-0.0116272,0.1521606,0.9882813,-0.02210999,0.1004181,0.9946899,0.04424902,0.1976233,0.9792789,
638503290683004155,1321729,115412,-0.01121521,0.1530914,0.9881439,-0.0221405,0.1003571,0.9946899,0.04444489,0.197177,0.9793599,
638503290683094159,1321738,115413,-0.0125885,0.1526947,0.9881897,-0.0221405,0.1007385,0.9946594,0.04443684,0.1968298,0.9794301,
638503290683184161,1321747,115414,-0.0136261,0.1531982,0.9880981,-0.02267456,0.1004181,0.9946747,0.04461937,0.1966481,0.9794583,
638503290683254166,1321754,115414,-0.02076721,0.1600342,0.9868774,-0.0274353,0.1044464,0.9941406,0.04461937,0.1966481,0.9794583,
638503290683344151,1321763,115415,-0.01647949,0.1986847,0.9799194,-0.02708435,0.1496582,0.9883575,0.04453879,0.1966525,0.9794611,
638503290683434158,1321772,115416,-0.003677368,0.2705231,0.9626923,-0.02705383,0.2459412,0.9689026,0.04441133,0.1972542,0.9793459,
638503290683514160,1321780,115417,-0.0138855,0.3460541,0.9381104,-0.04095459,0.2977753,0.9537506,0.04433767,0.1987857,0.9790395,
638503290683584160,1321787,115417,-0.003051758,0.3936768,0.9192352,-0.03974915,0.3544006,0.9342346,0.04433767,0.1987857,0.9790395,
638503290683674158,1321796,115418,0.004653931,0.4565277,0.8896942,-0.04376221,0.4022217,0.9144897,0.04399856,0.2007728,0.9786493,
638503290683764153,1321805,115419,0.01220703,0.504364,0.8633881,-0.05007935,0.428833,0.9019775,0.04380929,0.204166,0.9779555,
638503290683834164,1321812,115420,0.01950073,0.5384369,0.8424377,-0.04690552,0.4780426,0.8770752,0.04432701,0.2096832,0.9767641,
638503290683914154,1321820,115420,0.03056335,0.5365295,0.8433075,-0.05471802,0.4899292,0.8700256,0.04432701,0.2096832,0.9767641,
638503290684004170,1321829,115421,0.02183533,0.5575714,0.829834,-0.04534912,0.4861755,0.8726654,0.04469676,0.2159855,0.975373,
638503290684094156,1321838,115422,0.0184021,0.549469,0.8352966,-0.03459167,0.4911652,0.8703766,0.04552827,0.2230777,0.9737369,
638503290684164171,1321845,115422,0.02818298,0.5476074,0.8362427,-0.03567505,0.4749756,0.8792725,0.04552827,0.2230777,0.9737369,
638503290684264158,1321855,115423,0.01469421,0.5540924,0.8323059,-0.02485657,0.4659119,0.8844757,0.04602052,0.2296782,0.972178,
638503290684334156,1321862,115424,0.007751465,0.5582123,0.8296509,-0.02571106,0.4671478,0.8837891,0.04676007,0.2353429,0.9707869,
638503290684424169,1321871,115425,0.01138306,0.5323029,0.8464661,-0.03143311,0.4648895,0.8847961,0.04738985,0.2401038,0.9695898,
638503290684514173,1321880,115426,0.005722046,0.5179443,0.8553925,-0.03686523,0.4614258,0.8863983,0.04858513,0.2450734,0.9682864,
638503290684594158,1321888,115426,0.01014709,0.5261993,0.850296,-0.02047729,0.45401,0.8907471,0.04858513,0.2450734,0.9682864,
638503290684664153,1321895,115427,0.002975464,0.5250854,0.8510437,-0.02908325,0.4442902,0.895401,0.04960264,0.2501732,0.9669297,
638503290684754159,1321904,115428,0.007019043,0.5241547,0.8515778,-0.04644775,0.4620209,0.8856354,0.05079121,0.2553014,0.9655265,
638503290684834162,1321912,115429,0.009613037,0.5299988,0.8479309,-0.02864075,0.44133,0.8968811,0.05190087,0.260531,0.9640694,
638503290684924161,1321921,115429,0.01530457,0.5359344,0.8441162,-0.02308655,0.4457397,0.8948517,0.05190087,0.260531,0.9640694,
638503290685004157,1321929,115430,0.007446289,0.5168762,0.8560181,-0.0174408,0.4334412,0.901001,0.05304805,0.2654732,0.9626577,
638503290685084157,1321937,115431,0.01309204,0.5131989,0.8581543,-0.0124054,0.4320221,0.9017639,0.05427615,0.2703981,0.9612175,
638503290685174175,1321946,115432,0.01295471,0.5047302,0.8631744,-0.02333069,0.432251,0.9014435,0.05557638,0.2755731,0.9596722,
638503290685264167,1321955,115432,0.01786804,0.4924622,0.8701324,-0.0239563,0.4353638,0.8999176,0.05557638,0.2755731,0.9596722,
638503290685334167,1321962,115433,0.007858276,0.4954681,0.868576,-0.01622009,0.4204712,0.9071503,0.05695998,0.2814866,0.9578731,
638503290685424153,1321971,115434,-0.003128052,0.4933472,0.869812,-0.02090454,0.428772,0.9031677,0.0581717,0.2887732,0.9556286,
638503290685504157,1321979,115434,-0.01756287,0.4923401,0.8702087,-0.0138855,0.4229736,0.9060211,0.0581717,0.2887732,0.9556286,
638503290685584158,1321987,115435,-0.02145386,0.4876404,0.8727722,-0.01904297,0.4159241,0.9091949,0.05944751,0.2962124,0.9532703,
638503290685664162,1321995,115436,-0.01431274,0.4814758,0.8763275,-0.02038574,0.4142303,0.9099274,0.0601878,0.3035818,0.9509025,
638503290685764152,1322005,115437,0.001785278,0.4402466,0.8978577,-0.01956177,0.4098511,0.9119263,0.06126446,0.3105178,0.9485912,
638503290685844158,1322013,115437,0.007400513,0.4283295,0.9035797,-0.0184021,0.4071198,0.9131775,0.06126446,0.3105178,0.9485912,
638503290685914156,1322020,115438,0.005142212,0.4320221,0.9018402,-0.0196228,0.4079132,0.912796,0.06225136,0.3173278,0.9462705,
638503290686004157,1322029,115439,0.01982117,0.5015869,0.8648682,-0.03329468,0.4672394,0.8834991,0.0631559,0.3240938,0.9439145,
638503290686094175,1322038,115440,0.02357483,0.5127411,0.8582153,-0.02871704,0.4591827,0.8878632,0.06415981,0.331186,0.9413816,
638503290686174173,1322046,115440,0.03057861,0.5158997,0.8560944,-0.02024841,0.4604645,0.8874359,0.06415981,0.331186,0.9413816,
638503290686254172,1322054,115441,0.004119873,0.4903717,0.8714905,-0.01300049,0.4443512,0.895752,0.06529905,0.338853,0.9385706,
638503290686344152,1322063,115442,0.009002686,0.4688416,0.8832245,-0.0123291,0.4425659,0.896637,0.06608772,0.3466709,0.9356558,
638503290686424161,1322071,115443,0.008911133,0.467392,0.8840027,-0.01361084,0.4392548,0.8982544,0.06706361,0.3537263,0.9329417,
638503290686504177,1322079,115443,0.009918213,0.4692383,0.8829956,-0.007919312,0.434906,0.9004364,0.06706361,0.3537263,0.9329417,
638503290686584181,1322087,115444,0.01805115,0.4622192,0.8865662,-0.010849,0.4248352,0.9051971,0.06802571,0.3600148,0.9304633,
638503290686674158,1322096,115445,0.008148193,0.4347076,0.900528,-0.01190186,0.4247437,0.9052277,0.06870738,0.3658731,0.9281251,
638503290686764167,1322105,115446,0.006072998,0.4156494,0.9094849,-0.01054382,0.417511,0.9085999,0.06962263,0.3709514,0.9260387,
638503290686844173,1322113,115446,0.01405334,0.4221802,0.9063873,-0.003799438,0.4137878,0.9103546,0.06962263,0.3709514,0.9260387,
638503290686914167,1322120,115447,0.02563477,0.4053345,0.9138031,-0.006347656,0.4154053,0.9096069,0.0704862,0.3757946,0.9240184,
638503290687004166,1322129,115448,0.01901245,0.4012756,0.9157562,-0.006256104,0.4166412,0.9090424,0.07158979,0.381137,0.9217426,
638503290687084162,1322137,115449,0.02880859,0.40242,0.9149933,-0.008895874,0.4151917,0.9096832,0.0725304,0.3862837,0.919524,
638503290687164168,1322145,115449,0.01838684,0.3838348,0.9232025,-0.006454468,0.4119873,0.9111481,0.0725304,0.3862837,0.919524,
638503290687254151,1322154,115450,0.0214386,0.3848114,0.9227295,-0.007339478,0.4020538,0.9155731,0.07402399,0.3917029,0.9171093,
638503290687344158,1322163,115451,0.0201416,0.3848877,0.9227295,-0.01280212,0.3845978,0.9229889,0.07493103,0.3967951,0.9148437,
638503290687424166,1322171,115452,0.0219574,0.3824615,0.9237061,-0.01239014,0.3825531,0.9238434,0.07584859,0.4017881,0.9125861,
638503290687504160,1322179,115452,0.02377319,0.3801117,0.9246216,-0.01687622,0.3722076,0.9279785,0.07584859,0.4017881,0.9125861,
638503290687584186,1322187,115453,0.02427673,0.3736877,0.9272308,-0.01223755,0.3748474,0.927002,0.07681822,0.4063745,0.9104717,
638503290687674165,1322196,115454,0.0243988,0.3672791,0.9297791,-0.01423645,0.3778229,0.925766,0.07802497,0.4106399,0.9084531,
638503290687764167,1322205,115455,0.02279663,0.3663788,0.9301758,-0.01112366,0.360733,0.9326019,0.0788637,0.4145201,0.9066166,
638503290687834165,1322212,115455,0.02119446,0.3654175,0.9305878,-0.01020813,0.3750305,0.9269409,0.0788637,0.4145201,0.9066166,
638503290687914168,1322220,115456,0.0003662109,0.4040375,0.9147339,-0.009414673,0.3777161,0.9258575,0.07980672,0.4177182,0.9050649,
638503290688004174,1322229,115457,-0.01968384,0.4425049,0.8965454,-0.007553101,0.3799744,0.9249573,0.08067444,0.4210249,0.9034543,
638503290688084155,1322237,115458,-0.01965332,0.4398193,0.8978577,-0.002487183,0.3714447,0.9284363,0.08164739,0.4239044,0.9020193,
638503290688164173,1322245,115458,-0.02029419,0.4373016,0.8990784,-0.008087158,0.3687439,0.9294891,0.08164739,0.4239044,0.9020193,
638503290688254153,1322254,115459,-0.02032471,0.4290314,0.9030457,-0.00743103,0.3655243,0.9307556,0.08249933,0.4268516,0.9005507,
638503290688334165,1322262,115460,-0.02037048,0.4207764,0.9069214,-0.009780884,0.3665161,0.9303436,0.08340793,0.4296275,0.8991459,
638503290688424158,1322271,115461,-0.02043152,0.4188538,0.9078064,-0.0118866,0.3679657,0.9297485,0.08438887,0.4323164,0.8977644,
638503290688514157,1322280,115461,-0.02156067,0.4252625,0.9048004,-0.009384155,0.3527069,0.9356689,0.08438887,0.4323164,0.8977644,
638503290688584165,1322287,115462,-0.02142334,0.4100189,0.9118042,-0.01531982,0.3482971,0.9372559,0.08528624,0.4348686,0.8964461,
638503290688674160,1322296,115463,-0.02186584,0.4082642,0.9125824,-0.007141113,0.3452606,0.9384766,0.08623831,0.4374167,0.8951142,
638503290688764162,1322305,115464,-0.02453613,0.4065704,0.913269,-0.0105896,0.3421783,0.9395599,0.08688983,0.4398192,0.8938732,
638503290688834167,1322312,115464,-0.02488708,0.4035492,0.9146118,-0.01412964,0.3389435,0.9406891,0.08688983,0.4398192,0.8938732,
638503290688914174,1322320,115465,-0.02464294,0.404068,0.9143829,-0.01426697,0.3339996,0.9424591,0.08763099,0.442418,0.8925173,
638503290689004168,1322329,115466,-0.02520752,0.3919373,0.919632,-0.01695251,0.3272247,0.9447784,0.08893367,0.4444508,0.8913777,
638503290689084170,1322337,115467,-0.02555847,0.3932343,0.9190674,-0.00994873,0.3230591,0.9463196,0.08956414,0.4464314,0.8903242,
638503290689174164,1322346,115467,-0.02639771,0.386673,0.9218292,-0.01815796,0.3186188,0.9476929,0.08956414,0.4464314,0.8903242,
638503290689254164,1322354,115468,-0.02799988,0.3871155,0.9216003,-0.02664185,0.3136597,0.9491577,0.09007115,0.4480661,0.8894515,
638503290689334151,1322362,115469,-0.03094482,0.3790283,0.9248505,-0.02523804,0.3070831,0.9513397,0.09071822,0.4495991,0.8886117,
638503290689424173,1322371,115470,-0.03318787,0.3799286,0.924408,-0.02560425,0.3043518,0.9522095,0.09138168,0.4511182,0.8877735,
638503290689504172,1322379,115470,-0.03359985,0.3802338,0.9242706,-0.02990723,0.3018494,0.9528809,0.09138168,0.4511182,0.8877735,
638503290689584154,1322387,115471,-0.03408813,0.37854,0.924942,-0.0322113,0.2995758,0.9535217,0.09194171,0.4523909,0.8870677,
638503290689664160,1322395,115472,-0.03709412,0.3806305,0.9239655,-0.03260803,0.2980499,0.9539795,0.0922846,0.4534952,0.8864681,
638503290689754155,1322404,115473,-0.03726196,0.3762054,0.9257813,-0.03300476,0.2964935,0.9544525,0.09286675,0.4543388,0.8859752,
638503290689834166,1322412,115473,-0.03848267,0.3739014,0.9266663,-0.03175354,0.2960358,0.9546356,0.09286675,0.4543388,0.8859752,
638503290689914157,1322420,115474,-0.03739929,0.3716431,0.9276123,-0.03242493,0.2958527,0.9546661,0.093306,0.4554718,0.8853471,
638503290690004162,1322429,115475,-0.03640747,0.3708038,0.9279785,-0.03071594,0.2954865,0.9548492,0.09372852,0.4563646,0.8848426,
638503290690084154,1322437,115476,-0.03910828,0.3680115,0.9289856,-0.03102112,0.2951508,0.9549408,0.09426373,0.4576067,0.8841439,
638503290690164162,1322445,115476,-0.03805542,0.3643036,0.9304962,-0.03083801,0.2943268,0.9552002,0.09426373,0.4576067,0.8841439,
638503290690254154,1322454,115477,-0.0385437,0.3630676,0.930954,-0.02978516,0.2932281,0.9555664,0.09491846,0.4588493,0.8834295,
638503290690334158,1322462,115478,-0.03884888,0.3614655,0.9315643,-0.02967834,0.2928162,0.9556885,0.09569907,0.4601788,0.8826535,
638503290690424160,1322471,115479,-0.0390625,0.3589478,0.9325256,-0.02955627,0.2924347,0.9558258,0.09643901,0.4616598,0.8817992,
638503290690504161,1322479,115479,-0.03900146,0.3588257,0.9325867,-0.0296936,0.2928772,0.9556732,0.09643901,0.4616598,0.8817992,
638503290690584183,1322487,115480,-0.03945923,0.359436,0.9323273,-0.02983093,0.2932434,0.9555664,0.09738739,0.4631685,0.8809033,
638503290690674166,1322496,115481,-0.03512573,0.3601227,0.9322357,-0.02961731,0.2871704,0.9574127,0.09851854,0.4645714,0.8800384,
638503290690764156,1322505,115482,-0.03564453,0.3563995,0.9336395,-0.03129578,0.2852173,0.9579468,0.09960078,0.4658231,0.8792545,
638503290690834173,1322512,115482,-0.0355835,0.3553467,0.9340515,-0.03210449,0.283371,0.9584656,0.09960078,0.4658231,0.8792545,
638503290690914153,1322520,115483,-0.03544617,0.3539886,0.9345703,-0.03540039,0.2833862,0.9583435,0.101195,0.4672976,0.8782896,
638503290691004164,1322529,115484,-0.03549194,0.3460693,0.9375305,-0.03569031,0.2820435,0.958725,0.1026561,0.4689624,0.877232,
638503290691084172,1322537,115485,-0.03689575,0.3456116,0.9376373,-0.039505,0.2832794,0.9582062,0.1044385,0.4700898,0.8764178,
638503290691164170,1322545,115485,-0.03739929,0.3447723,0.9379272,-0.03855896,0.282074,0.9586029,0.1044385,0.4700898,0.8764178,
638503290691254152,1322554,115486,-0.03767395,0.3434601,0.9384003,-0.0378418,0.2781525,0.9597778,0.1061218,0.4713175,0.8755558,
638503290691334156,1322562,115487,-0.03938293,0.3435211,0.9383087,-0.03794861,0.2776337,0.9599304,0.1077082,0.4720605,0.8749616,
638503290691424165,1322571,115488,-0.0395813,0.3437042,0.9382324,-0.03829956,0.2751312,0.9606323,0.109059,0.4729096,0.8743355,
638503290691514165,1322580,115488,-0.04046631,0.3438568,0.9381409,-0.04119873,0.2723694,0.9613037,0.109059,0.4729096,0.8743355,
638503290691584184,1322587,115489,-0.04351807,0.3415833,0.9388275,-0.04212952,0.2729187,0.9611053,0.1105161,0.4735419,0.8738102,
638503290691674155,1322596,115490,-0.04394531,0.3386383,0.9398804,-0.04194641,0.2706604,0.9617462,0.1118407,0.4739329,0.8734296,
638503290691754156,1322604,115491,-0.04510498,0.3387299,0.9397888,-0.04980469,0.2714691,0.9611511,0.1131931,0.4741211,0.8731532,
638503290691834165,1322612,115491,-0.04759216,0.3334961,0.9415436,-0.05290222,0.2712097,0.9610596,0.1131931,0.4741211,0.8731532,
638503290691914151,1322620,115492,-0.04829407,0.3310089,0.9423828,-0.05085754,0.2714081,0.9611053,0.114402,0.4742421,0.8729299,
638503290692004156,1322629,115493,-0.04740906,0.3269958,0.9438171,-0.04957581,0.2709961,0.9612885,0.1155563,0.4743649,0.8727111,
638503290692084166,1322637,115494,-0.0496521,0.3275757,0.943512,-0.05419922,0.2714386,0.9609222,0.1164982,0.474434,0.8725483,
638503290692164167,1322645,115494,-0.04954529,0.3277893,0.9434357,-0.05143738,0.2702942,0.9613953,0.1164982,0.474434,0.8725483,
638503290692254152,1322654,115495,-0.04908752,0.3256836,0.9441986,-0.05802917,0.2669983,0.9619446,0.1172244,0.4746689,0.8723233,
638503290692334159,1322662,115496,-0.05090332,0.3236847,0.9447784,-0.0619812,0.2693024,0.9610443,0.1174417,0.4745966,0.8723333,
638503290692424155,1322671,115497,-0.05039978,0.3212891,0.9456329,-0.06114197,0.2677002,0.9615479,0.1177521,0.4745491,0.8723174,
638503290692514165,1322680,115497,-0.05303955,0.3207092,0.9456787,-0.06021118,0.2694244,0.9611206,0.1177521,0.4745491,0.8723174,
638503290692584172,1322687,115498,-0.05070496,0.3203735,0.9459229,-0.06060791,0.2716217,0.9604797,0.1172884,0.4743223,0.8725032,
638503290692664157,1322695,115499,-0.05255127,0.3202362,0.9458618,-0.06114197,0.2692413,0.9611206,0.1166854,0.474306,0.8725929,
638503290692754156,1322704,115500,-0.0532074,0.3196564,0.9460297,-0.061203,0.2714386,0.960495,0.1154539,0.4744192,0.8726952,
638503290692834157,1322712,115500,-0.05213928,0.3192139,0.946228,-0.06140137,0.269043,0.9611511,0.1154539,0.4744192,0.8726952,
638503290692914177,1322720,115501,-0.05175781,0.3187256,0.9464264,-0.06227112,0.2701111,0.9608002,0.114047,0.4747801,0.8726839,
638503290693004157,1322729,115502,-0.04971313,0.3180695,0.9467468,-0.0632019,0.2675323,0.9614563,0.1122704,0.4751072,0.8727362,
638503290693104151,1322739,115503,-0.051651,0.3171234,0.9469604,-0.06367493,0.2674408,0.9614563,0.110276,0.4756054,0.8727192,
638503290693164162,1322745,115503,-0.05578613,0.3171234,0.9467316,-0.06420898,0.2672729,0.9614716,0.110276,0.4756054,0.8727192,
638503290693254162,1322754,115504,-0.0536499,0.3175659,0.9467163,-0.06407166,0.2672577,0.9614868,0.1078229,0.4760694,0.8727727,
638503290693334155,1322762,115505,-0.05232239,0.3183441,0.9465179,-0.06390381,0.2674103,0.9614563,0.1047894,0.4765505,0.8728796,
638503290693424152,1322771,115505,-0.05102539,0.3183441,0.9465942,-0.06332397,0.2671509,0.9615631,0.1047894,0.4765505,0.8728796,
638503290693574165,1322786,115507,-0.04989624,0.3183441,0.9466553,-0.06248474,0.267395,0.9615479,0.09755134,0.4775727,0.8731598,
638503290693644153,1322793,115508,-0.05050659,0.3183441,0.9466095,-0.06135559,0.2670441,0.9617157,0.09326501,0.4783085,0.8732255,
638503290693704161,1322799,115508,-0.04920959,0.3183899,0.9466705,-0.06054688,0.2671814,0.961731,0.09326501,0.4783085,0.8732255,
638503290693764158,1322805,115509,-0.04771423,0.3188171,0.9466095,-0.05999756,0.2666168,0.9619141,0.08866443,0.4791958,0.8732182,
638503290693834161,1322812,115510,-0.06088257,0.3280182,0.9427032,-0.0743103,0.2705383,0.9598236,0.08302803,0.4805954,0.8730031,
638503290693914160,1322820,115510,-0.1384888,0.3227844,0.9362793,-0.1600189,0.2847443,0.9451447,0.08302803,0.4805954,0.8730031,
638503290694014155,1322830,115511,-0.1923218,0.3123322,0.9302826,-0.2058563,0.2837524,0.9365234,0.07636398,0.482274,0.8726857,
638503290694094164,1322838,115512,-0.2771454,0.3209229,0.9056396,-0.2777863,0.2896118,0.9159393,0.069206,0.4843311,0.8721433,
638503290694164171,1322845,115513,-0.3348541,0.3124084,0.8889618,-0.3483582,0.2902679,0.8912811,0.06062521,0.4868412,0.8713841,
638503290694254157,1322854,115513,-0.4073639,0.3178864,0.8561401,-0.3935394,0.2769012,0.8766022,0.06062521,0.4868412,0.8713841,
