time(100ns),time_stamp(ms),frame,gaze_direct_L.x,gaze_direct_L.y,gaze_direct_L.z,gaze_direct_R.x,gaze_direct_R.y,gaze_direct_R.z,forward.x,forward.y,forward.z,
638524908278247061,296777,21611,-0.06376648,0.1472626,0.98703,-0.0453949,0.136673,0.989563,0.05180082,0.1676536,0.9844841,
638524908278337054,296786,21612,-0.06134033,0.1506653,0.9866638,-0.0486145,0.1279907,0.9905701,0.05165682,0.167628,0.984496,
638524908278407055,296793,21613,-0.06245422,0.1370087,0.9885864,-0.05461121,0.1430817,0.9881897,0.05153281,0.1675366,0.9845181,
638524908278487075,296801,21614,-0.05979919,0.1393738,0.9884186,-0.05335999,0.1377106,0.9890289,0.05126307,0.1672952,0.9845732,
638524908278567043,296809,21614,-0.06135559,0.1388397,0.9884033,-0.06170654,0.1233368,0.9904327,0.05126307,0.1672952,0.9845732,
638524908278657046,296818,21615,-0.06896973,0.1280975,0.9893494,-0.05732727,0.1316833,0.989624,0.05025603,0.1665344,0.9847541,
638524908278737049,296826,21616,-0.06317139,0.1197357,0.9907837,-0.06549072,0.1165314,0.9910126,0.0491678,0.1656196,0.9849633,
638524908278837053,296836,21617,-0.06077576,0.1242676,0.9903717,-0.05459595,0.1162109,0.9917145,0.04872733,0.164645,0.9851485,
638524908278907046,296843,21617,-0.06866455,0.1300354,0.9891205,-0.05833435,0.123642,0.9906006,0.04872733,0.164645,0.9851485,
638524908278997058,296852,21618,-0.06143188,0.1343689,0.9890137,-0.05917358,0.1191406,0.9911041,0.04820356,0.1642721,0.9852366,
638524908279077061,296860,21619,-0.0647583,0.1215973,0.9904633,-0.05740356,0.1140442,0.991806,0.04782081,0.1642027,0.9852668,
638524908279157048,296868,21619,-0.05688477,0.1226807,0.990799,-0.05709839,0.1136627,0.9918671,0.04782081,0.1642027,0.9852668,
638524908279237046,296876,21620,-0.0627594,0.1330719,0.9891052,-0.05657959,0.1158142,0.9916534,0.04758672,0.1643814,0.9852483,
638524908279337052,296886,21621,-0.05999756,0.1311951,0.9895325,-0.05537415,0.1218109,0.9909973,0.04770707,0.1641832,0.9852756,
638524908279407074,296893,21622,-0.0652771,0.1269226,0.9897461,-0.05885315,0.1173248,0.991333,0.04797194,0.1642665,0.9852488,
638524908279497053,296902,21622,-0.06874084,0.1339264,0.9886017,-0.05780029,0.1078186,0.9924774,0.04797194,0.1642665,0.9852488,
638524908279577048,296910,21623,-0.06706238,0.1308746,0.9891205,-0.05613708,0.1195526,0.9912262,0.04847015,0.1642064,0.9852344,
638524908279657058,296918,21624,-0.06536865,0.1283264,0.989563,-0.05603027,0.1198425,0.9911957,0.04871777,0.1638163,0.9852872,
638524908279737052,296926,21625,-0.06520081,0.1303253,0.9893188,-0.05612183,0.1223907,0.9908905,0.04877189,0.1631806,0.9853899,
638524908279827054,296935,21625,-0.06488037,0.1312714,0.989212,-0.05682373,0.1187286,0.9912872,0.04877189,0.1631806,0.9853899,
638524908279907051,296943,21626,-0.05470276,0.1284943,0.9901886,-0.05752563,0.115036,0.991684,0.04876073,0.1624119,0.9855175,
638524908279997055,296952,21627,-0.06361389,0.1250916,0.990097,-0.05764771,0.1159058,0.9915771,0.0487182,0.1616052,0.9856522,
638524908280067054,296959,21628,-0.06822205,0.128418,0.9893646,-0.05755615,0.1176605,0.9913788,0.04874741,0.160791,0.9857839,
638524908280157044,296968,21628,-0.06355286,0.1330566,0.9890594,-0.05683899,0.1186981,0.9912872,0.04874741,0.160791,0.9857839,
638524908280237048,296976,21629,-0.06274414,0.1329956,0.9891205,-0.05610657,0.119812,0.9911957,0.04861291,0.1599138,0.9859332,
638524908280327050,296985,21630,-0.06242371,0.125061,0.9901733,-0.05635071,0.1177979,0.9914246,0.04871232,0.1588816,0.9860952,
638524908280407053,296993,21631,-0.06439209,0.1302948,0.9893799,-0.05079651,0.1287994,0.9903564,0.04950077,0.1577473,0.9862381,
638524908280487044,297001,21631,-0.0652771,0.1312408,0.9891968,-0.05203247,0.1227875,0.9910583,0.04950077,0.1577473,0.9862381,
638524908280567045,297009,21632,-0.06556702,0.1324768,0.9890137,-0.05178833,0.1249237,0.990799,0.05010913,0.1560549,0.9864765,
638524908280657059,297018,21633,-0.06593323,0.1332245,0.9888763,-0.05186462,0.1233826,0.9909973,0.05095788,0.15366,0.986809,
638524908280737069,297026,21634,-0.06622314,0.1352997,0.9885864,-0.05134583,0.1220703,0.9911804,0.05215032,0.150662,0.9872088,
638524908280817045,297034,21634,-0.06613159,0.1341858,0.988739,-0.05311584,0.1234131,0.990921,0.05215032,0.150662,0.9872088,
638524908280917051,297044,21635,-0.06507874,0.1374359,0.9883575,-0.05226135,0.1246338,0.9908142,0.05358138,0.1475166,0.9876071,
638524908280997046,297052,21636,-0.0660553,0.1394501,0.9880219,-0.0526123,0.1245117,0.9908142,0.0550892,0.1439839,0.9880455,
638524908281077053,297060,21637,-0.06430054,0.1385956,0.9882507,-0.05329895,0.1256104,0.9906311,0.05664875,0.1401627,0.9885066,
638524908281157044,297068,21637,-0.0645752,0.1377716,0.9883423,-0.05410767,0.1266785,0.9904633,0.05664875,0.1401627,0.9885066,
638524908281237053,297076,21638,-0.06440735,0.140686,0.9879456,-0.05517578,0.1267242,0.990387,0.05831447,0.1360352,0.9889863,
638524908281327058,297085,21639,-0.0625,0.1342468,0.9889679,-0.05612183,0.1278839,0.9901886,0.05992024,0.1318932,0.9894512,
638524908281407068,297093,21640,-0.0005645752,0.07250977,0.9973602,-0.0008544922,0.1016693,0.994812,0.06201817,0.127412,0.9899091,
638524908281487049,297101,21640,0.04052734,0.007278442,0.9991455,0.04827881,0.02996826,0.9983826,0.06201817,0.127412,0.9899091,
638524908281577049,297110,21641,0.05665588,-0.05831909,0.9966736,0.08303833,-0.03157043,0.9960327,0.06437333,0.1226868,0.9903555,
638524908281657053,297118,21642,0.0834198,-0.1266479,0.9884186,0.1053772,-0.1124725,0.9880371,0.06674172,0.1178495,0.9907861,
638524908281747056,297127,21643,0.115036,-0.1860352,0.975769,0.1275787,-0.1903229,0.9733887,0.06926332,0.1123676,0.9912498,
638524908281817043,297134,21643,0.1316376,-0.2454987,0.9604034,0.1407928,-0.2410431,0.9602356,0.06926332,0.1123676,0.9912498,
638524908281907056,297143,21644,0.1539764,-0.3145752,0.9366455,0.1717529,-0.3252106,0.9299011,0.07222816,0.1062507,0.9917126,
638524908281997046,297152,21645,0.1523132,-0.3299713,0.9316101,0.1620941,-0.3707581,0.9144592,0.07498232,0.1001302,0.9921449,
638524908282067054,297159,21645,0.1653748,-0.3912964,0.9052734,0.1876678,-0.398056,0.8979492,0.07498232,0.1001302,0.9921449,
638524908282147062,297167,21646,0.1443481,-0.4301605,0.8911285,0.1539001,-0.5102997,0.8460999,0.07741331,0.09470104,0.9924912,
638524908282237055,297176,21647,0.1477356,-0.4542694,0.8785248,-0.003616333,-0.5947418,0.803894,0.07949365,0.08936754,0.9928213,
638524908282317054,297184,21648,0.1520081,-0.4677734,0.8706665,0.0146637,-0.6399689,0.7682495,0.0811642,0.08232547,0.993295,
638524908282397056,297192,21648,0.1640167,-0.4896088,0.856369,0,0,0,0.0811642,0.08232547,0.993295,
638524908282477056,297200,21649,0.1651459,-0.4862823,0.8580475,0,0,0,0.08327872,0.07449088,0.9937383,
638524908282567062,297209,21650,0.1500244,-0.4828033,0.8627777,0.06318665,-0.5957947,0.8006287,0.08559144,0.06654181,0.9941058,
638524908282657053,297218,21651,0.1483459,-0.4774475,0.8660431,0.03407288,-0.5708771,0.8203125,0.08829391,0.05876286,0.9943597,
638524908282737050,297226,21651,0.1375275,-0.4725952,0.8704681,0.045578,-0.5194244,0.8532867,0.08829391,0.05876286,0.9943597,
638524908282817049,297234,21652,0.1332092,-0.4706879,0.8721771,0.03598022,-0.570816,0.820282,0.09126049,0.05043953,0.9945489,
638524908282907049,297243,21653,0.1245728,-0.487915,0.8639374,0,0,0,0.09424488,0.04073998,0.9947151,
638524908282987050,297251,21654,0.1363068,-0.4854126,0.8635864,0,0,0,0.09695334,0.0311329,0.9948019,
638524908283067047,297259,21654,0.1324768,-0.4799042,0.8672485,-0.00177002,-0.5258179,0.8505859,0.09695334,0.0311329,0.9948019,
638524908283157062,297268,21655,0.1267242,-0.4732971,0.8717346,0.04725647,-0.57547,0.8164368,0.09962717,0.02142816,0.9947941,
638524908283227072,297275,21656,0.1297607,-0.4768372,0.8693542,0,0,0,0.1026562,0.01199042,0.9946446,
638524908283317048,297284,21657,0.1383209,-0.4548492,0.8797455,0,0,0,0.1058441,0.002723904,0.994379,
638524908283397049,297292,21657,0.1289825,-0.4581146,0.8794708,0,0,0,0.1058441,0.002723904,0.994379,
638524908283477053,297300,21658,0.1041107,-0.4381104,0.892868,0,0,0,0.1092277,-0.006536357,0.9939952,
638524908283567053,297309,21659,0.09014893,-0.4198456,0.9030914,0.1365204,-0.4353638,0.8898315,0.1124223,-0.01572285,0.9935361,
638524908283657051,297318,21660,0.09590149,-0.411972,0.9061279,0.151535,-0.4599915,0.8748779,0.1159937,-0.02568526,0.9929178,
638524908283727057,297325,21660,0.1025696,-0.4072266,0.9075317,0.1481934,-0.4587402,0.8761139,0.1159937,-0.02568526,0.9929178,
638524908283817044,297334,21661,0.09695435,-0.4085999,0.9075317,0.149704,-0.4600067,0.8751984,0.1194183,-0.03617726,0.9921847,
638524908283897067,297342,21662,0.1027679,-0.406189,0.9079742,0.1512451,-0.4602051,0.8748169,0.1232346,-0.04756574,0.991237,
638524908283977053,297350,21663,0.09587097,-0.4141693,0.9051208,0.1473694,-0.4586792,0.8762817,0.1266596,-0.05937993,0.9901673,
638524908284077050,297360,21663,0.1175842,-0.4319458,0.8941956,0.1488342,-0.4795685,0.8647766,0.1266596,-0.05937993,0.9901673,
638524908284157044,297368,21664,0.09892273,-0.4685516,0.8778687,0,0,0,0.1301849,-0.07119849,0.98893,
638524908284227071,297375,21665,0.08535767,-0.5024872,0.8603516,0,0,0,0.1330023,-0.08395803,0.9875532,
638524908284317067,297384,21666,0.09591675,-0.4720764,0.8763123,0,0,0,0.1362355,-0.09672236,0.9859436,
638524908284397048,297392,21666,0.05944824,-0.4777985,0.8764496,0,0,0,0.1362355,-0.09672236,0.9859436,
638524908284477053,297400,21667,0.0693512,-0.4741364,0.8777008,0,0,0,0.1398713,-0.1097687,0.9840665,
638524908284557045,297408,21668,0.05947876,-0.4736481,0.8786926,0,0,0,0.1435766,-0.1230948,0.9819539,
638524908284657057,297418,21669,0.07060242,-0.4694366,0.880127,0,0,0,0.1474164,-0.1370017,0.9795402,
638524908284727047,297425,21669,0.07072449,-0.4655762,0.8821564,0,0,0,0.1474164,-0.1370017,0.9795402,
638524908284817045,297434,21670,0.0740509,-0.4474182,0.8912354,0,0,0,0.1507969,-0.1509849,0.9769667,
638524908284897062,297442,21671,0.06472778,-0.4482422,0.8915558,0.1002808,-0.4814758,0.870697,0.1541766,-0.1653248,0.9741136,
638524908284997054,297452,21672,0.07008362,-0.4338531,0.8982391,0.1042786,-0.4372711,0.8932495,0.1568819,-0.1796044,0.971149,
638524908285067047,297459,21672,0.08532715,-0.4122162,0.907074,0.05317688,-0.3769684,0.9246826,0.1568819,-0.1796044,0.971149,
638524908285157050,297468,21673,0.06944275,-0.419632,0.905014,0.1035004,-0.429306,0.8972015,0.1593118,-0.1936357,0.9680521,
638524908285227053,297475,21674,0.06817627,-0.3766327,0.9238434,0.08169556,-0.3908234,0.9168243,0.1610396,-0.2072227,0.9649482,
638524908285317049,297484,21675,0.05448914,-0.3703003,0.9273071,0.1046143,-0.41922,0.901825,0.1628245,-0.2201812,0.9617736,
638524908285397047,297492,21675,0.07270813,-0.3543701,0.9322662,0.1066437,-0.3995056,0.9104919,0.1628245,-0.2201812,0.9617736,
638524908285477069,297500,21676,0.06141663,-0.3596954,0.9310303,0.09661865,-0.3842468,0.9181519,0.165124,-0.2322844,0.9585291,
638524908285567065,297509,21677,0.06391907,-0.3446808,0.9365234,0.08805847,-0.3650513,0.9268036,0.167231,-0.2428925,0.9555297,
638524908285647070,297517,21678,0.07214355,-0.3347778,0.9395142,0.08161926,-0.3536377,0.9318085,0.1696822,-0.2530093,0.9524674,
638524908285727058,297525,21678,0.0786438,-0.3400269,0.9371185,0.08651733,-0.365921,0.9266052,0.1696822,-0.2530093,0.9524674,
638524908285817044,297534,21679,0.07736206,-0.3181305,0.94487,0.08686829,-0.3411713,0.9359589,0.1717978,-0.2616997,0.9497362,
638524908285897056,297542,21680,0.07247925,-0.3172455,0.9455566,0.09422302,-0.3276825,0.9400635,0.1730625,-0.2695329,0.9473127,
638524908285977051,297550,21681,0.05102539,-0.3205566,0.9458466,0.07933044,-0.3179169,0.9447784,0.1738841,-0.2767601,0.9450758,
638524908286067047,297559,21681,0.06361389,-0.3073883,0.9494476,0.07589722,-0.3310547,0.9405518,0.1738841,-0.2767601,0.9450758,
638524908286157045,297568,21682,0.07148743,-0.3008575,0.9509735,0.07301331,-0.3140564,0.946579,0.1743928,-0.283458,0.9429945,
638524908286227058,297575,21683,0.06108093,-0.2874451,0.9558411,0.07006836,-0.3037109,0.9501801,0.1744904,-0.289588,0.941112,
638524908286317070,297584,21684,0.06692505,-0.283432,0.9566498,0.06680298,-0.293335,0.9536591,0.1749911,-0.2960139,0.9390175,
638524908286397063,297592,21684,0.06272888,-0.2925568,0.9541779,0.06051636,-0.2747803,0.9595947,0.1749911,-0.2960139,0.9390175,
638524908286477054,297600,21685,0.06314087,-0.2743225,0.959549,0.06912231,-0.2764435,0.9585266,0.1750329,-0.3016762,0.9372059,
638524908286577062,297610,21686,0.06863403,-0.2697601,0.9604645,0.06526184,-0.2772827,0.9585571,0.1751273,-0.3075673,0.9352715,
638524908286657058,297618,21687,0.0615387,-0.2601929,0.9635773,0.06539917,-0.2758331,0.9589691,0.1753038,-0.3130592,0.9334145,
638524908286727048,297625,21687,0.06311035,-0.2632141,0.9626617,0.06838989,-0.2765198,0.9585571,0.1753038,-0.3130592,0.9334145,
638524908286817049,297634,21688,0.06950378,-0.2569427,0.963913,0.06924438,-0.2723236,0.9597015,0.175351,-0.3186098,0.9315255,
638524908286897059,297642,21689,0.07415771,-0.2497101,0.9654694,0.06855774,-0.271759,0.9599152,0.1743637,-0.3240921,0.929818,
638524908286977060,297650,21690,0.05955505,-0.245163,0.9676361,0.05628967,-0.2520142,0.9660797,0.1736371,-0.3295957,0.9280177,
638524908287067058,297659,21690,0.06021118,-0.2259827,0.9722595,0.06646729,-0.2412262,0.9681854,0.1736371,-0.3295957,0.9280177,
638524908287147070,297667,21691,0.0587616,-0.2256622,0.9724274,0.05482483,-0.2377167,0.9697723,0.1726252,-0.3345501,0.9264323,
638524908287227050,297675,21692,0.06083679,-0.2266998,0.9720459,0.059021,-0.2404175,0.9688568,0.1720682,-0.3391951,0.9248455,
638524908287317058,297684,21693,0.05981445,-0.2302704,0.971283,0.06214905,-0.2352295,0.9699402,0.171603,-0.3438555,0.9232095,
638524908287397049,297692,21693,0.05563354,-0.229126,0.9718018,0.0652771,-0.2302246,0.970932,0.171603,-0.3438555,0.9232095,
638524908287487062,297701,21694,0.0619812,-0.2224121,0.9729767,0.05812073,-0.2084351,0.9763031,0.1710265,-0.347938,0.9217858,
638524908287567052,297709,21695,0.06204224,-0.2274017,0.971817,0.05627441,-0.2138824,0.975235,0.1708265,-0.3516012,0.9204319,
638524908287647070,297717,21696,0.05891418,-0.2234955,0.9729156,0.0554657,-0.1995544,0.978302,0.1720907,-0.3543938,0.9191245,
638524908287727051,297725,21696,0.04922485,-0.2304382,0.9718323,0.05734253,-0.1925964,0.979599,0.1720907,-0.3543938,0.9191245,
638524908287817048,297734,21697,0.04983521,-0.222641,0.9736176,0.06137085,-0.1938629,0.9790955,0.1729785,-0.3566153,0.918098,
638524908287897055,297742,21698,0.06195068,-0.2012634,0.9775696,0.05474854,-0.1973724,0.9787903,0.1718441,-0.35814,0.9177175,
638524908287987079,297751,21699,0.0559082,-0.201004,0.9779816,0.0506897,-0.2024078,0.9779816,0.172003,-0.3596077,0.9171135,
638524908288077047,297760,21700,0.05308533,-0.2058716,0.9771271,0.05859375,-0.2004089,0.977951,0.1725003,-0.3600812,0.9168344,
638524908288147046,297767,21700,0.06317139,-0.1990509,0.9779358,0.06367493,-0.1960907,0.9785004,0.1725003,-0.3600812,0.9168344,
638524908288237068,297776,21701,0.05735779,-0.1925812,0.979599,0.05497742,-0.1970062,0.9788513,0.1730977,-0.3602835,0.9166422,
638524908288317068,297784,21702,0.05349731,-0.1939087,0.9795532,0.05322266,-0.2034454,0.9776306,0.1739007,-0.3609537,0.9162265,
638524908288397046,297792,21702,0.05448914,-0.1933746,0.979599,0.05381775,-0.1988068,0.9785461,0.1739007,-0.3609537,0.9162265,
638524908288487052,297801,21703,0.05661011,-0.1920929,0.9797363,0.05519104,-0.1999969,0.9782257,0.1748572,-0.361367,0.9158815,
638524908288567056,297809,21704,0.05569458,-0.1920166,0.9797974,0.05558777,-0.2005005,0.9781036,0.1753921,-0.3619379,0.9155537,
638524908288647063,297817,21705,0.05381775,-0.1910248,0.9801025,0.0557251,-0.1987305,0.9784546,0.1759368,-0.3622118,0.9153408,
638524908288737057,297826,21705,0.05195618,-0.1899261,0.9804077,0.05574036,-0.2006073,0.9780731,0.1759368,-0.3622118,0.9153408,
638524908288827048,297835,21706,0.05996704,-0.1706848,0.98349,0.05558777,-0.1988525,0.9784393,0.1762754,-0.3625861,0.9151275,
638524908288897068,297842,21707,0.04682922,-0.1818542,0.9822083,0.05537415,-0.1997681,0.9782715,0.1768854,-0.362555,0.9150221,
638524908288997052,297852,21708,0.04960632,-0.1713562,0.9839478,0.05549622,-0.1992798,0.978363,0.1774383,-0.3627905,0.9148217,
638524908289067050,297859,21708,0.06332397,-0.172821,0.9829102,0.05534363,-0.2007599,0.9780579,0.1774383,-0.3627905,0.9148217,
638524908289157050,297868,21709,0.06309509,-0.1730194,0.9828796,0.05502319,-0.2021942,0.9777832,0.1778141,-0.3628309,0.9147327,
638524908289237063,297876,21710,0.06285095,-0.1732025,0.9828644,0.05465698,-0.2035828,0.9775238,0.1783275,-0.3632033,0.9144849,
638524908289317081,297884,21711,0.06071472,-0.1732483,0.9830017,0.05403137,-0.2042084,0.9774323,0.1787645,-0.363846,0.914144,
638524908289397047,297892,21711,0.05856323,-0.1725922,0.9832458,0.05335999,-0.2044373,0.977417,0.1787645,-0.363846,0.914144,
638524908289487047,297901,21712,0.05450439,-0.1725006,0.98349,0.05354309,-0.2046356,0.9773712,0.1791865,-0.3645355,0.9137867,
638524908289567056,297909,21713,0.05775452,-0.1723328,0.9833374,0.05374146,-0.2044373,0.9773865,0.1795837,-0.3652713,0.9134148,
638524908289657050,297918,21714,0.05400085,-0.1719666,0.9836121,0.04614258,-0.2010345,0.9784851,0.1802194,-0.3653761,0.9132476,
638524908289737055,297926,21714,0.05024719,-0.170166,0.9841309,0.0443573,-0.201355,0.9785004,0.1802194,-0.3653761,0.9132476,
638524908289817057,297934,21715,0.0496521,-0.1713562,0.9839478,0.05409241,-0.210083,0.976181,0.1810359,-0.3655564,0.913014,
638524908289897047,297942,21716,0.04905701,-0.1726227,0.9837494,0.04878235,-0.203949,0.9777527,0.1821322,-0.3653462,0.9128801,
638524908289987056,297951,21717,0.04862976,-0.1726685,0.9837646,0.05378723,-0.1979523,0.9787292,0.1833257,-0.3650875,0.9127446,
638524908290067053,297959,21717,0.04866028,-0.1727753,0.9837494,0.04873657,-0.197876,0.9790039,0.1833257,-0.3650875,0.9127446,
638524908290147060,297967,21718,0.04858398,-0.1756439,0.9832458,0.04533386,-0.1971283,0.9793243,0.1845686,-0.3647068,0.9126464,
638524908290247044,297977,21719,0.04722595,-0.1785126,0.9827881,0.04615784,-0.1976318,0.9791718,0.1861837,-0.3642119,0.9125159,
638524908290317051,297984,21720,0.04684448,-0.1798401,0.9825745,0.04696655,-0.1980896,0.9790497,0.1879306,-0.363514,0.9124361,
638524908290407048,297993,21720,0.04675293,-0.1808014,0.9823914,0.0466156,-0.1973419,0.9792175,0.1879306,-0.363514,0.9124361,
638524908290487047,298001,21721,0.04667664,-0.1811218,0.9823456,0.04626465,-0.1968231,0.9793396,0.1900048,-0.3625058,0.9124077,
638524908290567056,298009,21722,0.04623413,-0.180603,0.9824524,0.0458374,-0.1978455,0.9791565,0.192231,-0.3612218,0.9124506,
638524908290657046,298018,21723,0.04608154,-0.1804352,0.9824982,0.04554749,-0.1987,0.9789886,0.1945167,-0.3599443,0.912471,
638524908290737050,298026,21723,0.04603577,-0.1801147,0.9825592,0.04580688,-0.2003937,0.9786377,0.1945167,-0.3599443,0.912471,
638524908290817045,298034,21724,0.04447937,-0.1805878,0.9825439,0.04606628,-0.2018585,0.9783173,0.1970655,-0.359014,0.9122906,
638524908290897047,298042,21725,0.03494263,-0.1870422,0.98172,0.0448761,-0.2036438,0.9780121,0.2002268,-0.3578399,0.9120635,
638524908290987053,298051,21726,0.02757263,-0.1721191,0.9846802,0.04367065,-0.2054138,0.9776917,0.2030146,-0.3568994,0.9118157,
638524908291077053,298060,21726,0.03009033,-0.1750946,0.9840851,0.02993774,-0.1910553,0.9811096,0.2030146,-0.3568994,0.9118157,
638524908291157066,298068,21727,0.03019714,-0.1780548,0.983551,0.02813721,-0.188797,0.9815979,0.2063262,-0.3558299,0.9114903,
638524908291237054,298076,21728,0.03067017,-0.1826172,0.9826965,0.02722168,-0.1927032,0.9808655,0.2098898,-0.3546924,0.91112,
638524908291317078,298084,21729,0.03106689,-0.1872253,0.9818115,0.02363586,-0.1929626,0.9809113,0.2141747,-0.3533202,0.9106558,
638524908291407061,298093,21729,0.02151489,-0.1854706,0.9824066,0.02009583,-0.1931915,0.9809418,0.2141747,-0.3533202,0.9106558,
