time(100ns),time_stamp(ms),frame,gaze_direct_L.x,gaze_direct_L.y,gaze_direct_L.z,gaze_direct_R.x,gaze_direct_R.y,gaze_direct_R.z,forward.x,forward.y,forward.z,
638549095956845617,488486,37683,0.01463318,-0.1607819,0.9868774,0.01408386,-0.1801758,0.9835205,0.0422651,0.08630452,0.9953719,
638549095956925613,488494,37684,0.01071167,-0.1699219,0.9853973,0.01634216,-0.161499,0.9867249,0.04922611,0.08448433,0.9952081,
638549095957005608,488502,37685,0.006713867,-0.1708832,0.98526,0.008712769,-0.1551971,0.9878387,0.05635324,0.08283851,0.9949684,
638549095957095620,488511,37686,0.00177002,-0.1632385,0.9865723,0.007171631,-0.1587524,0.9872894,0.06394945,0.08129365,0.9946365,
638549095957165785,488518,37686,-0.008590698,-0.1699677,0.9853973,0.003814697,-0.1664429,0.9860382,0.07147288,0.07978798,0.9942462,
638549095957250846,488526,37687,-0.008575439,-0.1617126,0.9867859,-0.0151825,-0.2152252,0.9764404,0.07147288,0.07978798,0.9942462,
638549095957330852,488534,37688,0.01300049,-0.1557922,0.9877014,0.02235413,-0.1490784,0.9885559,0.07914766,0.07786991,0.9938169,
638549095957420854,488543,37689,0.0655365,-0.1439514,0.9874115,0.0355835,-0.2019196,0.9787445,0.08671372,0.07605714,0.9933258,
638549095957495952,488551,37689,0.1045532,-0.1431274,0.9841614,0.1420746,-0.238205,0.9607544,0.08671372,0.07605714,0.9933258,
638549095957585956,488560,37690,0.1457672,-0.1535492,0.9773254,0.1438599,-0.1954803,0.9700928,0.09404915,0.07411745,0.9928048,
638549095957665956,488568,37691,0.140686,-0.171936,0.9750061,0.1804199,-0.2143555,0.9599304,0.1012966,0.07196131,0.9922503,
638549095957755957,488577,37692,0.1974182,-0.1483765,0.9690094,0.2268982,-0.3323212,0.915451,0.1082722,0.06986526,0.9916632,
638549095957835959,488585,37693,0.2084351,-0.1493683,0.9665527,0.1085205,-0.2876587,0.9515533,0.1148036,0.06730414,0.9911056,
638549095957915952,488593,37693,0.2175751,-0.1441193,0.965332,0.201004,-0.2935486,0.9345551,0.1148036,0.06730414,0.9911056,
638549095958005951,488602,37694,0.2142487,-0.14711,0.9656219,0.1832733,-0.2696838,0.9453278,0.121342,0.06471796,0.9904987,
638549095958085949,488610,37695,0.212326,-0.1481323,0.9658966,0.2229614,-0.2713013,0.9362946,0.1271309,0.06199272,0.9899468,
638549095958176149,488619,37696,0.2014465,-0.1503906,0.9678802,0.2445221,-0.2888031,0.9256287,0.1327458,0.05899776,0.9893926,
638549095958256434,488627,37696,0.200119,-0.1477661,0.9685516,0.2627563,-0.217453,0.940033,0.1327458,0.05899776,0.9893926,
638549095958336433,488635,37697,0.196991,-0.1563416,0.9678497,0.2551117,-0.1984406,0.9463196,0.137702,0.05558877,0.9889126,
638549095958426440,488644,37698,0.1889648,-0.1396332,0.9720001,0.2637787,-0.1236115,0.9566193,0.1425464,0.05238478,0.9884009,
638549095958501547,488651,37699,0.1876221,-0.1476746,0.9710693,0.1674805,-0.22966,0.9587402,0.1471055,0.04899689,0.9879065,
638549095958571531,488658,37699,0.1860504,-0.1456604,0.9716797,0.3186798,-0.1536407,0.935318,0.1471055,0.04899689,0.9879065,
638549095958671535,488668,37700,0.182724,-0.1404266,0.9730682,0.3339539,-0.1943207,0.9223328,0.1512503,0.04594382,0.9874272,
638549095958761545,488677,37701,0.178833,-0.140625,0.9737701,0.2709808,-0.1947937,0.9426575,0.1545243,0.04368843,0.9870226,
638549095958831534,488684,37702,0.1886444,-0.1337433,0.9728851,0.2296906,-0.1432495,0.9626465,0.1579179,0.04139531,0.9865842,
638549095958921527,488693,37702,0.1746674,-0.1330872,0.9755859,0.2290649,-0.08726501,0.9694824,0.1579179,0.04139531,0.9865842,
638549095959001524,488701,37703,0.1716461,-0.1306763,0.9764404,0.2064209,-0.1076508,0.9725189,0.1604554,0.04001636,0.9862316,
638549095959086601,488710,37704,0.1724243,-0.1309052,0.9762726,0.1715698,-0.1152802,0.9783936,0.1628899,0.03887875,0.9858779,
638549095959166792,488718,37705,0.153717,-0.1218567,0.9805603,0.137619,-0.185379,0.9729767,0.1648315,0.03845917,0.9855716,
638549095959246795,488726,37705,0.1690979,-0.06391907,0.9835205,0.1302338,-0.1079559,0.9855804,0.1648315,0.03845917,0.9855716,
638549095959336804,488735,37706,0.1240997,-0.01290894,0.9921722,0.1203766,-0.01028442,0.9926605,0.1662838,0.03831907,0.9853331,
638549095959426799,488744,37707,0.07606506,0.0375824,0.9963837,0.05784607,0.06373596,0.9962769,0.1677216,0.0382745,0.9850911,
638549095959496802,488751,37708,0.02900696,0.08816528,0.9956818,0.02267456,0.07847595,0.9966431,0.1685125,0.03839634,0.9849514,
638549095959586799,488760,37708,-0.01586914,0.1439514,0.9894562,-0.01274109,0.170929,0.985199,0.1685125,0.03839634,0.9849514,
638549095959666802,488768,37709,-0.0592804,0.1594849,0.9854126,-0.05444336,0.166748,0.9844818,0.1691114,0.03843744,0.9848471,
638549095959761890,488777,37710,-0.1063232,0.1689606,0.9798584,-0.1053619,0.2068939,0.9726715,0.1690926,0.03832009,0.9848549,
638549095959831900,488784,37710,-0.1213226,0.1664276,0.9785461,-0.1055298,0.2093048,0.9721375,0.1690926,0.03832009,0.9848549,
638549095959921889,488793,37711,-0.1190033,0.1722717,0.977829,-0.09255981,0.2254181,0.9698486,0.1689308,0.03827567,0.9848844,
638549095960001896,488801,37712,-0.1203766,0.1604309,0.9796753,-0.0899353,0.2159576,0.9722443,0.1684144,0.03794801,0.9849855,
638549095960091894,488810,37713,-0.127121,0.164505,0.9781342,-0.1165771,0.2088623,0.9709625,0.1672182,0.03776066,0.9851965,
638549095960161897,488817,37713,-0.1175232,0.1695099,0.9784851,-0.1284485,0.1975708,0.9718323,0.1672182,0.03776066,0.9851965,
638549095960261890,488827,37714,-0.1239471,0.1641541,0.9786072,-0.1123657,0.204834,0.9723206,0.1654557,0.03749326,0.9855043,
638549095960331896,488834,37715,-0.120224,0.1687927,0.9782867,-0.1027985,0.2441406,0.9642639,0.1642335,0.03744212,0.9857106,
638549095960421894,488843,37716,-0.1256714,0.1625519,0.978653,-0.1200867,0.2178497,0.9685516,0.161723,0.03743758,0.9861258,
638549095960502107,488851,37717,-0.1216125,0.1687469,0.9781189,-0.1193542,0.2259369,0.9667969,0.159539,0.03735996,0.9864844,
638549095960582090,488859,37717,-0.1262207,0.160675,0.9788971,-0.1170502,0.2235107,0.9676361,0.159539,0.03735996,0.9864844,
638549095960672091,488868,37718,-0.1280518,0.1676483,0.977478,-0.1122284,0.22966,0.9667664,0.1567595,0.03716446,0.9869373,
638549095960752117,488876,37719,-0.1275787,0.1675262,0.9775696,-0.1101379,0.2325439,0.9663239,0.1541467,0.03719627,0.9873476,
638549095960832104,488884,37719,-0.1247406,0.1624146,0.9787903,-0.1191711,0.2449799,0.9621735,0.1541467,0.03719627,0.9873476,
638549095960922090,488893,37720,-0.1237488,0.1669464,0.9781647,-0.1210022,0.2293701,0.9657745,0.151229,0.03694636,0.987808,
638549095961002092,488901,37721,-0.1225891,0.1651306,0.9786072,-0.1261292,0.2175751,0.9678497,0.1483484,0.03687003,0.9882476,
638549095961082100,488909,37722,-0.113739,0.1705322,0.9787598,-0.1269531,0.2164459,0.9679871,0.1450512,0.0362692,0.9887592,
638549095961162096,488917,37722,-0.1194305,0.1724243,0.9777527,-0.1283112,0.2266388,0.9654846,0.1450512,0.0362692,0.9887592,
638549095961252092,488926,37723,-0.1184998,0.1658936,0.9789886,-0.1409454,0.1946106,0.9706879,0.1421569,0.0358769,0.9891937,
638549095961342087,488935,37724,-0.1231842,0.1658325,0.9784241,-0.1260376,0.1954651,0.9725647,0.1395176,0.03529581,0.9895903,
638549095961412088,488942,37725,-0.1194611,0.1624451,0.9794464,-0.1329041,0.1906586,0.9726105,0.1368694,0.03443913,0.9899902,
638549095961497158,488951,37725,-0.1218109,0.157959,0.9798889,-0.1272125,0.1925354,0.9729919,0.1368694,0.03443913,0.9899902,
638549095961597150,488961,37726,-0.1201935,0.1559143,0.980423,-0.1368256,0.1993103,0.9703217,0.134601,0.03360717,0.9903298,
638549095961667164,488968,37727,-0.1209259,0.1592712,0.9797974,-0.1165924,0.1838531,0.9759979,0.1321448,0.03299646,0.9906811,
638549095961762282,488977,37728,-0.1230621,0.1544189,0.9803009,-0.124054,0.1725922,0.9771423,0.130012,0.03221938,0.9909888,
638549095961832267,488984,37728,-0.1261597,0.1656799,0.9780731,-0.1306152,0.1440582,0.980896,0.130012,0.03221938,0.9909888,
638549095961922272,488993,37729,-0.1803741,0.1309052,0.9748383,-0.1830444,0.1701202,0.9682617,0.1279286,0.03126627,0.9912904,
638549095962002277,489001,37730,-0.2035828,0.1046448,0.9734344,-0.2240295,0.1433563,0.963974,0.125808,0.030276,0.9915925,
638549095962082279,489009,37730,-0.2217712,0.08700562,0.9711914,-0.2454529,0.1457062,0.9583893,0.125808,0.030276,0.9915925,
638549095962162266,489017,37731,-0.2223816,0.08750916,0.9710083,-0.2520142,0.1427612,0.9571228,0.1239397,0.02923268,0.9918591,
638549095962252275,489026,37732,-0.2224426,0.09211731,0.9705811,-0.286499,0.1161499,0.951004,0.1218978,0.02797086,0.9921485,
638549095962332275,489034,37733,-0.2179413,0.07725525,0.9728851,-0.2827606,0.1228027,0.9512787,0.1199631,0.02646546,0.9924256,
638549095962412274,489042,37733,-0.2237396,0.08149719,0.9712219,-0.2792358,0.1186066,0.9528656,0.1199631,0.02646546,0.9924256,
638549095962497389,489051,37734,-0.2178802,0.0773468,0.9729004,-0.2761688,0.1130981,0.954422,0.1179837,0.02486213,0.9927043,
638549095962577399,489059,37735,-0.214798,0.07351685,0.973877,-0.2731018,0.1070251,0.9560089,0.1158894,0.02339981,0.9929864,
638549095962667386,489068,37736,-0.2193451,0.07603455,0.9726715,-0.2725677,0.1092377,0.9559021,0.113376,0.02156147,0.9933181,
638549095962757397,489077,37737,-0.2180634,0.06910706,0.9734802,-0.2455139,0.1155701,0.9624634,0.110524,0.01963679,0.9936795,
638549095962827392,489084,37737,-0.2144165,0.07662964,0.9737244,-0.2605286,0.1455536,0.954422,0.110524,0.01963679,0.9936795,
638549095962922490,489094,37738,-0.2207336,0.06704712,0.9730225,-0.2415314,0.09500122,0.9657288,0.1068161,0.01691256,0.994135,
638549095963002511,489102,37739,-0.2227783,0.06593323,0.9726257,-0.2245636,0.09494019,0.9698181,0.1028158,0.01346948,0.9946092,
638549095963082490,489109,37739,-0.2207642,0.08003235,0.9720306,-0.2469635,0.09194946,0.9646454,0.1028158,0.01346948,0.9946092,
638549095963162491,489117,37740,-0.2216339,0.0642395,0.9730072,-0.2692566,0.09449768,0.9584198,0.09860586,0.009079558,0.9950851,
638549095963252487,489126,37741,-0.2222748,0.06271362,0.9729462,-0.2280121,0.1057892,0.9678802,0.09378178,0.003165989,0.9955878,
638549095963332505,489135,37742,-0.2111053,0.06314087,0.9754181,-0.2542572,0.08059692,0.9637604,0.08874468,-0.003598709,0.9960479,
638549095963412500,489142,37742,-0.2098541,0.06965637,0.975235,-0.1346436,0.06315613,0.9888763,0.08874468,-0.003598709,0.9960479,
638549095963497608,489151,37743,-0.2218628,0.06381226,0.9729767,-0.2640839,0.1127167,0.9578857,0.08363627,-0.01032641,0.9964429,
638549095963587613,489160,37744,-0.2216949,0.05984497,0.9732666,-0.180069,0.04977417,0.9823761,0.07842115,-0.01787808,0.99676,
638549095963657613,489167,37745,-0.2197723,0.07064819,0.9729767,-0.2306213,0.05241394,0.9716187,0.073448,-0.02495259,0.9969869,
638549095963757606,489177,37746,-0.206131,0.07336426,0.9757538,-0.2458038,0.06095886,0.967392,0.06815669,-0.03215158,0.9971564,
638549095963827610,489184,37746,-0.2120361,0.06214905,0.9752808,-0.2259369,0.06115723,0.9722137,0.06815669,-0.03215158,0.9971564,
638549095963922717,489194,37747,-0.2136536,0.06369019,0.974823,-0.2212982,0.04042053,0.9743652,0.06324218,-0.03908917,0.9972324,
638549095964002745,489202,37748,-0.207901,0.0643158,0.9760284,-0.2148285,0.07041931,0.9741058,0.0587022,-0.04574892,0.9972267,
638549095964082727,489210,37748,-0.2090759,0.07954407,0.9746552,-0.2084045,0.09197998,0.9736938,0.0587022,-0.04574892,0.9972267,
638549095964172719,489219,37749,-0.2046356,0.07081604,0.9762573,-0.203186,0.09111023,0.974884,0.05422555,-0.05240643,0.9971525,
638549095964252726,489227,37750,-0.2036743,0.0716095,0.9764099,-0.1948547,0.08731079,0.9769287,0.05008552,-0.0581433,0.9970511,
638549095964332728,489235,37751,-0.200531,0.06419373,0.9775696,-0.1964264,0.08854675,0.9765015,0.04587397,-0.06392078,0.9969,
638549095964422724,489244,37752,-0.2001801,0.07209778,0.9770966,-0.1866455,0.08233643,0.9789581,0.04158281,-0.06886009,0.9967594,
638549095964497811,489251,37752,-0.2059784,0.07214355,0.9758911,-0.1945496,0.08035278,0.9775848,0.04158281,-0.06886009,0.9967594,
638549095964577816,489259,37753,-0.1956024,0.07080078,0.9781189,-0.2042236,0.08387756,0.9753113,0.03755383,-0.07357439,0.9965824,
638549095964677820,489269,37754,-0.1948853,0.07923889,0.9776154,-0.1925812,0.08956909,0.9771729,0.03348323,-0.07753004,0.9964276,
638549095964757814,489277,37755,-0.19664,0.07765198,0.9773865,-0.1930084,0.1153107,0.9743805,0.02974658,-0.08117973,0.9962555,
638549095964827816,489284,37755,-0.2042389,0.07336426,0.9761658,-0.1979828,0.09439087,0.975647,0.02974658,-0.08117973,0.9962555,
638549095964922939,489294,37756,-0.1960602,0.08340454,0.9770355,-0.1903381,0.09104919,0.977478,0.02653132,-0.08499219,0.9960283,
638549095965002927,489302,37757,-0.196701,0.08055115,0.9771423,-0.1800537,0.09194946,0.9793396,0.02311401,-0.08841927,0.9958152,
638549095965092939,489311,37758,-0.194809,0.09390259,0.9763184,-0.1810913,0.08485413,0.9797821,0.02006883,-0.09186684,0.9955691,
638549095965162926,489318,37758,-0.1944122,0.08950806,0.9768219,-0.1942902,0.07064819,0.9783936,0.02006883,-0.09186684,0.9955691,
638549095965248030,489326,37759,-0.1903229,0.07878113,0.9785461,-0.1820221,0.07614136,0.9803314,0.01709721,-0.09479637,0.9953499,
638549095965328015,489334,37760,-0.1954041,0.07563782,0.9777985,-0.1836395,0.07469177,0.9801483,0.01423256,-0.09752055,0.9951317,
638549095965418025,489343,37761,-0.1953735,0.08232117,0.9772644,-0.1821899,0.08886719,0.9792328,0.01155277,-0.09988303,0.9949321,
638549095965498024,489351,37761,-0.1973724,0.07745361,0.9772491,-0.1910248,0.09059143,0.9773865,0.01155277,-0.09988303,0.9949321,
638549095965588020,489360,37762,-0.1930695,0.07501221,0.978302,-0.1813354,0.08216858,0.9799805,0.008998916,-0.1016985,0.9947746,
638549095965668016,489368,37763,-0.1947632,0.08399963,0.9772339,-0.2084656,0.1002808,0.9728699,0.006628103,-0.103486,0.9946088,
638549095965758015,489377,37764,-0.1953888,0.08146667,0.9773254,-0.1751556,0.1053619,0.9788818,0.004903513,-0.1049477,0.9944656,
638549095965828022,489384,37764,-0.1949005,0.0789032,0.9776306,-0.1851349,0.08624268,0.9789124,0.004903513,-0.1049477,0.9944656,
638549095965928019,489394,37765,-0.1918488,0.08172607,0.9780121,-0.1824951,0.08035278,0.9799042,0.003163838,-0.1064758,0.9943103,
638549095965998025,489401,37766,-0.1901245,0.08638,0.977951,-0.1870422,0.09106445,0.9781189,0.001911011,-0.1083191,0.9941143,
638549095966078021,489409,37766,-0.1917725,0.08091736,0.9780884,-0.192276,0.08052063,0.9780273,0.001911011,-0.1083191,0.9941143,
638549095966163131,489418,37767,-0.1879883,0.07380676,0.9793854,-0.1764374,0.07235718,0.9816437,0.001091837,-0.1101391,0.9939156,
638549095966248209,489426,37768,-0.1983795,0.07723999,0.977066,-0.1821136,0.06414795,0.9811707,6.152294E-05,-0.1120127,0.9937068,
638549095966328211,489434,37769,-0.1998901,0.07513428,0.9769287,-0.1907959,0.07382202,0.9788361,-0.0007612363,-0.1139347,0.993488,
638549095966423341,489444,37770,-0.194046,0.07745361,0.9779205,-0.1909332,0.08084106,0.9782562,-0.001385024,-0.1157096,0.9932821,
638549095966498450,489451,37770,-0.1941071,0.07978821,0.9777222,-0.1833801,0.07546997,0.9801331,-0.001385024,-0.1157096,0.9932821,
638549095966578453,489459,37771,-0.1964264,0.07652283,0.9775238,-0.1898346,0.06602478,0.9795837,-0.001879196,-0.1169929,0.993131,
638549095966658461,489467,37772,-0.1951447,0.07392883,0.9779816,-0.1896973,0.07955933,0.9786072,-0.002214926,-0.1186314,0.9929359,
638549095966748449,489476,37772,-0.1968994,0.0743866,0.9775848,-0.1851044,0.08181763,0.9792938,-0.002214926,-0.1186314,0.9929359,
638549095966828451,489484,37773,-0.1965027,0.07202148,0.9778442,-0.1886444,0.06907654,0.979599,-0.002087813,-0.1201789,0.99275,
638549095966918451,489493,37774,-0.1972504,0.06956482,0.9778748,-0.1908264,0.07106018,0.9790344,-0.002117361,-0.1215424,0.992584,
638549095967008446,489502,37775,-0.1988678,0.06866455,0.9776154,-0.1887512,0.07275391,0.9793091,-0.001470152,-0.1230959,0.9923937,
638549095967088443,489510,37776,-0.2003784,0.06796265,0.9773407,-0.1895905,0.06974792,0.9793701,-0.0009956763,-0.1246525,0.9922,
638549095967168453,489518,37776,-0.2063141,0.06234741,0.9764862,-0.192749,0.04927063,0.9799957,-0.0009956763,-0.1246525,0.9922,
638549095967258456,489527,37777,-0.2108459,0.05822754,0.975769,-0.2236328,0.07344055,0.9718933,-0.000349347,-0.1256963,0.9920687,
638549095967338460,489535,37778,-0.2094421,0.04785156,0.9766388,-0.2023926,0.06336975,0.9772491,0.0002974097,-0.1268353,0.9919237,
638549095967418456,489543,37779,-0.2091827,0.06298828,0.9758301,-0.1978912,0.059021,0.9784393,0.001286285,-0.1277918,0.9918002,
638549095967498456,489551,37779,-0.205246,0.0584259,0.9769592,-0.2047729,0.05603027,0.9771881,0.001286285,-0.1277918,0.9918002,
638549095967588458,489560,37780,-0.2138824,0.0499115,0.9755707,-0.2000122,0.0554657,0.9782104,0.00244217,-0.1285876,0.9916952,
638549095967668481,489568,37781,-0.2120972,0.05114746,0.9759064,-0.2111511,0.0537262,0.9759674,0.003834632,-0.1291318,0.99162,
638549095967758459,489577,37782,-0.2066956,0.05039978,0.9770966,-0.2029114,0.05154419,0.977829,0.005620031,-0.129545,0.9915576,
638549095967828450,489584,37782,-0.2151947,0.05625916,0.9749451,-0.2079773,0.05427551,0.9766235,0.005620031,-0.129545,0.9915576,
638549095967908465,489592,37783,-0.2164917,0.05827332,0.9745331,-0.2039795,0.04545593,0.9779053,0.007595193,-0.1303076,0.9914445,
638549095968003935,489602,37784,-0.217865,0.05586243,0.9743652,-0.227478,0.06065369,0.9718781,0.009504051,-0.1311989,0.9913105,
638549095968083909,489610,37785,-0.2167511,0.06323242,0.9741669,-0.2142334,0.05834961,0.9750214,0.01134045,-0.1322933,0.9911457,
638549095968163910,489618,37785,-0.2146606,0.06016541,0.974823,-0.2168274,0.05076599,0.974884,0.01134045,-0.1322933,0.9911457,
638549095968253908,489627,37786,-0.2184753,0.05238342,0.9744263,-0.2240295,0.05711365,0.9729004,0.01224665,-0.1334567,0.990979,
638549095968333920,489635,37787,-0.2196198,0.05418396,0.9740753,-0.2214355,0.05574036,0.9735718,0.01288652,-0.1347802,0.9907917,
638549095968427244,489644,37788,-0.2217407,0.05558777,0.9735107,-0.2145233,0.06394958,0.9746094,0.01290736,-0.137352,0.9904382,
638549095968497143,489651,37788,-0.2226257,0.05201721,0.9735107,-0.2469177,0.06097412,0.9671021,0.01290736,-0.137352,0.9904382,
638549095968577139,489659,37789,-0.2226715,0.05258179,0.973465,-0.2338562,0.04855347,0.9710541,0.0119241,-0.1403869,0.9900249,
638549095968667151,489668,37790,-0.2310181,0.03829956,0.9721832,-0.2347107,0.04475403,0.9710236,0.01186391,-0.1432399,0.9896169,
638549095968755907,489677,37791,-0.2323456,0.05192566,0.9712372,-0.2401276,0.05133057,0.9693756,0.01157035,-0.1442569,0.9894726,
638549095968832438,489684,37791,-0.2340546,0.02909851,0.9717712,-0.2310944,0.03868103,0.9721527,0.01157035,-0.1442569,0.9894726,
638549095968912443,489693,37792,-0.2354889,0.03570557,0.9712067,-0.231842,0.02618408,0.9723969,0.0124039,-0.1446283,0.9894083,
638549095969002432,489701,37793,-0.2361145,0.03477478,0.9710846,-0.2419281,0.03755188,0.9695587,0.01248458,-0.1457731,0.9892393,
638549095969092429,489710,37794,-0.2363739,0.0328064,0.9710999,-0.2328949,0.03924561,0.9716949,0.01228998,-0.1461306,0.989189,
638549095969162429,489717,37794,-0.2356873,0.03071594,0.9713287,-0.241745,0.02455139,0.9700165,0.01228998,-0.1461306,0.989189,
638549095969247530,489726,37795,-0.246109,0.02960205,0.9687805,-0.2334442,0.03033447,0.9718933,0.01231159,-0.1465153,0.9891318,
638549095969337523,489735,37796,-0.2414703,0.03363037,0.9698181,-0.2277527,0.02340698,0.9734344,0.01173964,-0.1474681,0.9889972,
638549095969417535,489743,37797,-0.2394409,0.03291321,0.9703369,-0.2328949,0.007904053,0.9724579,0.01159411,-0.1478333,0.9889444,
638549095969496501,489751,37797,-0.2367249,-0.00390625,0.9715576,-0.2448883,-0.0297699,0.9690857,0.01159411,-0.1478333,0.9889444,
638549095969586503,489760,37798,-0.2411804,-0.02636719,0.970108,-0.2428436,-0.0448761,0.9690094,0.01091531,-0.1483885,0.9888689,
638549095969666510,489768,37799,-0.2577209,-0.02653503,0.9658508,-0.2600098,-0.04586792,0.9645081,0.01083579,-0.1489291,0.9887885,
