time(100ns),time_stamp(ms),frame,gaze_direct_L.x,gaze_direct_L.y,gaze_direct_L.z,gaze_direct_R.x,gaze_direct_R.y,gaze_direct_R.z,forward.x,forward.y,forward.z,
638549102208128512,1113614,86811,-0.1334076,0.1780548,0.9749298,-0.1254883,0.1879272,0.9741211,0.1113891,0.07527155,0.9909222,
638549102208208500,1113622,86812,-0.1281281,0.1870117,0.9739532,-0.1216888,0.1830597,0.9755402,0.1115944,0.07521573,0.9909033,
638549102208303590,1113632,86813,-0.1310577,0.1903839,0.9729156,-0.123642,0.1978302,0.9723969,0.1118758,0.07484124,0.9908999,
638549102208383600,1113640,86814,-0.1334534,0.196106,0.9714508,-0.1161499,0.2019043,0.9724884,0.1122119,0.07472636,0.9908705,
638549102208453590,1113647,86814,-0.1295166,0.1837616,0.9743958,-0.1177673,0.1872711,0.9752197,0.1122119,0.07472636,0.9908705,
638549102208543593,1113656,86815,-0.1243896,0.1912994,0.9736023,-0.1200867,0.1911163,0.9741821,0.1125169,0.07429998,0.990868,
638549102208633600,1113665,86816,-0.1303253,0.1932068,0.9724579,-0.1151581,0.2007446,0.9728394,0.1126434,0.07398331,0.9908773,
638549102208723602,1113674,86817,-0.1281891,0.1884613,0.9736633,-0.1174164,0.1906586,0.9745941,0.112784,0.07363629,0.9908872,
638549102208793595,1113681,86818,-0.1315002,0.1898346,0.9729614,-0.1177063,0.2096558,0.9706573,0.1129566,0.07334991,0.9908888,
638549102208878685,1113689,86818,-0.1312256,0.1859741,0.9737396,-0.1182556,0.2092896,0.9706726,0.1129566,0.07334991,0.9908888,
638549102208963847,1113698,86819,-0.1321411,0.1790619,0.9749146,-0.1161499,0.204895,0.9718628,0.1131589,0.07290957,0.9908982,
638549102209053805,1113707,86820,-0.1334839,0.1843567,0.9737396,-0.1156006,0.2079468,0.9712677,0.113062,0.07235952,0.9909496,
638549102209123809,1113714,86820,-0.1315613,0.1879883,0.9733124,-0.1192932,0.2064667,0.9711456,0.113062,0.07235952,0.9909496,
638549102209213809,1113723,86821,-0.1279297,0.1923828,0.9729309,-0.1274109,0.2075653,0.9698792,0.1133609,0.07206635,0.9909368,
638549102209293800,1113731,86822,-0.1282959,0.1950378,0.9723511,-0.1243439,0.206543,0.9704895,0.1131413,0.07170139,0.9909884,
638549102209383797,1113740,86823,-0.1248169,0.1931458,0.9731903,-0.1270752,0.2066956,0.970108,0.1131271,0.0715179,0.9910033,
638549102209473798,1113749,86824,-0.1143188,0.1964874,0.9738159,-0.1247711,0.2054749,0.9706726,0.1127515,0.07140922,0.9910539,
638549102209543799,1113756,86824,-0.1201935,0.1963806,0.9731293,-0.1224365,0.2052765,0.9710083,0.1127515,0.07140922,0.9910539,
638549102209633801,1113765,86825,-0.122345,0.1968384,0.9727631,-0.1224365,0.2077484,0.9704742,0.1123671,0.07149299,0.9910915,
638549102209723811,1113774,86826,-0.1222992,0.1980591,0.9725189,-0.1224213,0.2105408,0.9698792,0.1119902,0.07137287,0.9911428,
638549102209793804,1113781,86827,-0.1222534,0.1992645,0.9722748,-0.1231079,0.2101288,0.9698792,0.1114362,0.0711955,0.991218,
638549102209873804,1113789,86827,-0.1223602,0.198288,0.9724579,-0.1229401,0.209549,0.9700317,0.1114362,0.0711955,0.991218,
638549102209963798,1113798,86828,-0.1112213,0.2054291,0.9723206,-0.1173096,0.2068024,0.9713135,0.1109784,0.07091401,0.9912896,
638549102210043823,1113806,86829,-0.09236145,0.1958466,0.9762726,-0.08764648,0.2023315,0.9753723,0.1105756,0.07057795,0.9913586,
638549102210133794,1113815,86830,-0.02375793,0.2028198,0.9789124,-0.02592468,0.1997986,0.9794922,0.1102649,0.07006347,0.9914296,
638549102210213804,1113823,86830,0.04086304,0.1971741,0.9795074,0.03898621,0.2014465,0.978714,0.1102649,0.07006347,0.9914296,
638549102210293802,1113831,86831,0.1014404,0.1975098,0.9750214,0.09194946,0.2141876,0.9724426,0.110011,0.06986073,0.9914722,
638549102210373804,1113839,86832,0.1557007,0.1946411,0.9684296,0.1533051,0.2245331,0.962326,0.1098993,0.06956345,0.9915054,
638549102210453803,1113847,86832,0.1997223,0.1902924,0.9611816,0.1982422,0.2389069,0.9505768,0.1098993,0.06956345,0.9915054,
638549102210543795,1113856,86833,0.2315521,0.1919556,0.9536896,0.2335968,0.234787,0.9435577,0.1097072,0.06921857,0.9915509,
638549102210633800,1113865,86834,0.2497406,0.1918335,0.9491119,0.2632446,0.2272949,0.937561,0.1100455,0.06915187,0.991518,
638549102210713807,1113873,86835,0.2493286,0.1901093,0.9495697,0.2597961,0.2264709,0.9387207,0.1101502,0.06924004,0.9915003,
638549102210788911,1113880,86836,0.2411652,0.1950836,0.9506683,0.2587585,0.2277679,0.9386902,0.1105414,0.06929205,0.9914531,
638549102210878906,1113889,86836,0.2416077,0.1934357,0.950882,0.2579803,0.2224731,0.9401703,0.1105414,0.06929205,0.9914531,
638549102210964027,1113898,86837,0.2425842,0.1924133,0.9508514,0.2521515,0.2297058,0.9400177,0.1109759,0.06949446,0.9913903,
638549102211044025,1113906,86838,0.2462769,0.1893921,0.9505005,0.2442017,0.233551,0.9411621,0.1113222,0.06973385,0.9913347,
638549102211124042,1113914,86839,0.2463379,0.1853943,0.9512787,0.2466583,0.2291412,0.9416199,0.1120177,0.06974835,0.9912554,
638549102211214022,1113923,86839,0.2491913,0.1929779,0.9490204,0.2542725,0.2395782,0.9369812,0.1120177,0.06974835,0.9912554,
638549102211304024,1113932,86840,0.2465057,0.1971588,0.9488678,0.240097,0.2407074,0.9404297,0.1127025,0.06984156,0.9911712,
638549102211374032,1113939,86841,0.2475739,0.193634,0.9493103,0.2503662,0.233078,0.9396667,0.1134268,0.06969384,0.9910989,
638549102211459105,1113947,86842,0.2495422,0.1890717,0.949707,0.2492065,0.2286835,0.9410553,0.1142419,0.06952745,0.991017,
638549102211539473,1113955,86842,0.2474365,0.1919403,0.9496918,0.2498627,0.2312317,0.9402618,0.1142419,0.06952745,0.991017,
638549102211629368,1113964,86843,0.2498627,0.1855621,0.9503174,0.2494659,0.2187195,0.9433441,0.1151232,0.06938481,0.990925,
638549102211714439,1113973,86844,0.2465363,0.1892548,0.9504547,0.2511749,0.2269897,0.9409332,0.1162052,0.06912716,0.9908167,
638549102211799561,1113981,86845,0.2447205,0.178772,0.9529572,0.2447357,0.1945801,0.9498444,0.1170059,0.06914046,0.9907216,
638549102211874657,1113989,86845,0.2375183,0.1219025,0.9636993,0.2340088,0.150589,0.960495,0.1170059,0.06914046,0.9907216,
638549102211969727,1113998,86846,0.2059021,0.05603027,0.9769592,0.1974182,0.1096039,0.9741669,0.1179674,0.06895225,0.9906207,
638549102212039739,1114005,86847,0.1763458,0.01651001,0.9841766,0.1791229,0.0491333,0.9825897,0.1188642,0.06861382,0.9905369,
638549102212129731,1114014,86847,0.09713745,-0.07788086,0.9922028,0.147934,-0.01312256,0.9889069,0.1188642,0.06861382,0.9905369,
638549102212209733,1114022,86848,0.08215332,-0.1378937,0.98703,0.1333313,-0.08436584,0.9874573,0.1195588,0.06812156,0.9904873,
638549102212299729,1114031,86849,0.1096497,-0.174118,0.9785919,0.1228943,-0.1591797,0.9795685,0.1200946,0.06746812,0.9904673,
638549102212379751,1114039,86850,0.09695435,-0.2312469,0.9680328,0.120575,-0.2379303,0.9637604,0.1207944,0.06678877,0.9904281,
638549102212454859,1114047,86850,0.1015625,-0.2832184,0.9536591,0.1395874,-0.2905579,0.9466095,0.1207944,0.06678877,0.9904281,
638549102212534855,1114055,86851,0.09164429,-0.3218994,0.9423218,0.1182556,-0.3453827,0.9309692,0.1215377,0.06638709,0.9903643,
638549102212624869,1114064,86852,0.08255005,-0.3791656,0.9216309,0.1036072,-0.4251556,0.8991547,0.1221015,0.0657564,0.990337,
638549102212709962,1114072,86853,0.08323669,-0.4096375,0.908432,0.1060181,-0.4446564,0.889389,0.122276,0.06536271,0.9903415,
638549102212785085,1114080,86853,0.08659363,-0.454834,0.8863525,0.114624,-0.5086517,0.853302,0.122276,0.06536271,0.9903415,
638549102212875080,1114089,86854,0.07739258,-0.473526,0.8773651,0.1173553,-0.5201874,0.845932,0.1227507,0.064952,0.9903098,
638549102212965081,1114098,86855,0.07926941,-0.494278,0.8656616,0.116394,-0.5619965,0.8188934,0.1225903,0.06446528,0.9903615,
638549102213035091,1114105,86855,0.08230591,-0.526062,0.8464355,0.1136169,-0.5871582,0.8014374,0.1224401,0.06428409,0.9903919,
638549102213125329,1114114,86856,0.07801819,-0.5300903,0.8443298,0.1334229,-0.6082764,0.7824249,0.1224401,0.06428409,0.9903919,
638549102213215335,1114123,86857,0.08108521,-0.5438843,0.8352203,0.1215668,-0.5922394,0.796524,0.1224211,0.06360434,0.990438,
638549102213285329,1114130,86858,0.08175659,-0.5483093,0.8322601,0.1129303,-0.5961914,0.7948456,0.1224541,0.06328661,0.9904543,
638549102213365326,1114138,86858,0.08084106,-0.5545959,0.8281708,0.1476135,-0.6053925,0.7821045,0.1224541,0.06328661,0.9904543,
638549102213445331,1114146,86859,0.08384705,-0.5622864,0.8226624,0.1268921,-0.6016998,0.788559,0.1224007,0.06286719,0.9904876,
638549102213535320,1114155,86860,0.08375549,-0.559082,0.8248596,0.1266937,-0.6113434,0.7811432,0.1222143,0.06262589,0.990526,
638549102213615338,1114163,86861,0.08361816,-0.5538177,0.8284149,0.118103,-0.6117554,0.7821655,0.1223733,0.06230171,0.9905267,
638549102213700440,1114171,86861,0.08496094,-0.5582275,0.8253021,0.1027527,-0.615799,0.7811584,0.1223733,0.06230171,0.9905267,
638549102213780443,1114179,86862,0.08378601,-0.5594635,0.8246002,0.09988403,-0.607254,0.7881927,0.1223159,0.06164459,0.990575,
638549102213870452,1114188,86863,0.08453369,-0.5594482,0.8245392,0.1170349,-0.6194153,0.7762756,0.1227129,0.06105231,0.9905626,
638549102213950451,1114196,86864,0.08360291,-0.5532684,0.8287811,0.08395386,-0.6256714,0.7755432,0.1228606,0.06034439,0.9905876,
638549102214030447,1114204,86864,0.08448792,-0.5496216,0.8311157,0.09898376,-0.6249847,0.7743225,0.1228606,0.06034439,0.9905876,
638549102214110453,1114212,86865,0.08502197,-0.5488739,0.8315582,0.08898926,-0.6243744,0.7760315,0.1231085,0.05947992,0.9906091,
638549102214200440,1114221,86866,0.08547974,-0.548111,0.832016,0.09228516,-0.6069031,0.7893829,0.1231155,0.05811241,0.9906894,
638549102214290444,1114230,86867,0.08535767,-0.547699,0.8322906,0.08259583,-0.6115875,0.7868347,0.1233448,0.05716217,0.9907162,
638549102214370446,1114238,86867,0.08522034,-0.547287,0.8325806,0.09999084,-0.6081696,0.7874756,0.1233448,0.05716217,0.9907162,
638549102214445636,1114246,86868,0.08496094,-0.5471649,0.8326874,0.08755493,-0.6144409,0.7840729,0.123595,0.05618129,0.9907411,
638549102214535638,1114255,86869,0.08435059,-0.5470276,0.83284,0.09709167,-0.6165314,0.781311,0.1237174,0.05471718,0.9908078,
638549102214625630,1114264,86870,0.08401489,-0.5468445,0.8329926,0.09642029,-0.6150208,0.7825775,0.1237182,0.05321435,0.9908895,
638549102214700760,1114271,86870,0.08352661,-0.5403442,0.8372803,0.0973053,-0.6135406,0.7836304,0.1237182,0.05321435,0.9908895,
638549102214785847,1114280,86871,0.08045959,-0.5358887,0.8404388,0.09603882,-0.6113739,0.7854767,0.1238572,0.05143634,0.990966,
638549102214865847,1114288,86872,0.08734131,-0.5416107,0.8360748,0.09632874,-0.6091461,0.7871704,0.1235615,0.0494734,0.9911029,
638549102214955846,1114297,86873,0.08863831,-0.5311279,0.8426208,0.09690857,-0.6070709,0.7887115,0.1234995,0.04721721,0.9912207,
638549102215035835,1114305,86873,0.08448792,-0.5335846,0.841507,0.09738159,-0.6050568,0.7901917,0.1234995,0.04721721,0.9912207,
638549102215115843,1114313,86874,0.0899353,-0.5336914,0.8408661,0.1038666,-0.5963898,0.795929,0.1232506,0.04430445,0.9913861,
638549102215195847,1114321,86875,0.08422852,-0.5337219,0.8414459,0.1280518,-0.5823822,0.8027496,0.1228655,0.04169804,0.9915469,
638549102215285846,1114330,86876,0.07847595,-0.5258179,0.8469543,0.1152649,-0.5702972,0.8132935,0.1228267,0.03864771,0.9916753,
638549102215365840,1114338,86876,0.07418823,-0.5286713,0.8455658,0.1024933,-0.5608368,0.8215485,0.1228267,0.03864771,0.9916753,
638549102215445841,1114346,86877,0.07745361,-0.5293732,0.8448334,0.1123962,-0.5644226,0.8177795,0.1224412,0.03553464,0.9918394,
638549102215535841,1114355,86878,0.0796051,-0.5319824,0.8429871,0.1101074,-0.5690765,0.8148651,0.1219,0.03240674,0.9920132,
638549102215620955,1114363,86879,0.07929993,-0.5241852,0.8478851,0.1109924,-0.5709686,0.8134155,0.1216673,0.02938033,0.992136,
638549102215706064,1114372,86879,0.0861969,-0.5213165,0.8489838,0.1087494,-0.5674896,0.8161621,0.1216673,0.02938033,0.992136,
638549102215796060,1114381,86880,0.08575439,-0.5063934,0.858017,0.1018066,-0.5531158,0.8268433,0.1211625,0.02656928,0.992277,
638549102215866070,1114388,86881,0.08500671,-0.4995728,0.8620758,0.1038513,-0.5452576,0.8317871,0.1208566,0.02409413,0.9923775,
638549102215946070,1114396,86882,0.08067322,-0.5062408,0.8585968,0.1039581,-0.5488129,0.8294525,0.1202386,0.02153674,0.9925114,
638549102216036062,1114405,86882,0.07814026,-0.5138397,0.8543091,0.1079559,-0.5530548,0.8261108,0.1202386,0.02153674,0.9925114,
638549102216116067,1114413,86883,0.07952881,-0.5211182,0.849762,0.1143188,-0.5513,0.826416,0.1199614,0.01919885,0.9925929,
638549102216206072,1114422,86884,0.06983948,-0.5199127,0.8513489,0.1099548,-0.5588837,0.8219147,0.119593,0.01646002,0.9926866,
638549102216286074,1114430,86885,0.06964111,-0.5100861,0.8572845,0.1088867,-0.5379486,0.8358917,0.1192002,0.01343041,0.9927794,
638549102216366067,1114438,86885,0.0710144,-0.5167084,0.8531952,0.100769,-0.5346527,0.8390198,0.1192002,0.01343041,0.9927794,
638549102216456060,1114447,86886,0.07286072,-0.5138092,0.8547974,0.1021271,-0.5327911,0.8400421,0.1191762,0.01073088,0.9928151,
638549102216536060,1114455,86887,0.084198,-0.5001526,0.8618164,0.1045685,-0.5361938,0.8375854,0.1189907,0.00766381,0.9928658,
638549102216626074,1114464,86888,0.08294678,-0.4966736,0.8639526,0.110321,-0.5505371,0.8274689,0.1190049,0.004416272,0.9928839,
638549102216696066,1114471,86888,0.07696533,-0.4801025,0.8738098,0.1009827,-0.5328979,0.8401184,0.1190049,0.004416272,0.9928839,
638549102216781137,1114479,86889,0.07752991,-0.4968719,0.8643341,0.1052551,-0.5249023,0.8446045,0.1186586,0.0007021276,0.9929349,
638549102216871130,1114488,86890,0.08139038,-0.4976349,0.8635559,0.1038513,-0.5250854,0.8446655,0.1186169,-0.003292468,0.9929346,
638549102216951142,1114496,86891,0.08898926,-0.4905396,0.8668518,0.1084137,-0.5292053,0.8415222,0.1183897,-0.007186079,0.9929412,
638549102217031139,1114504,86891,0.08662415,-0.4839325,0.8707886,0.1101379,-0.5257874,0.8434448,0.1183897,-0.007186079,0.9929412,
638549102217121131,1114513,86892,0.09190369,-0.4759369,0.874649,0.1013184,-0.5072937,0.8557892,0.1182439,-0.01122996,0.9929211,
638549102217201144,1114521,86893,0.09176636,-0.4745331,0.8754272,0.1089478,-0.5045013,0.8564911,0.117898,-0.01532654,0.9929074,
638549102217291134,1114530,86894,0.09121704,-0.4855499,0.8694153,0.104538,-0.5039673,0.8573608,0.1170295,-0.01925276,0.9929418,
638549102217371143,1114538,86894,0.08248901,-0.4862823,0.8698883,0.09764099,-0.5124969,0.8531036,0.1170295,-0.01925276,0.9929418,
638549102217446252,1114546,86895,0.08856201,-0.4778595,0.8739471,0.1004791,-0.5038757,0.8578949,0.1162027,-0.02294177,0.9929605,
638549102217536256,1114555,86896,0.09230042,-0.4583588,0.8839417,0.1051788,-0.4889526,0.8659363,0.1153522,-0.02642604,0.9929731,
638549102217626247,1114564,86897,0.09072876,-0.4610596,0.8827057,0.1044617,-0.4808807,0.8705292,0.1146572,-0.0298016,0.992958,
638549102217711340,1114572,86898,0.08674622,-0.4771881,0.8744965,0.107605,-0.4806213,0.870285,0.1134876,-0.03273398,0.993,
638549102217781349,1114579,86898,0.0877533,-0.4785614,0.873642,0.111557,-0.4803162,0.8699646,0.1134876,-0.03273398,0.993,
638549102217876482,1114589,86899,0.09274292,-0.4637909,0.8810577,0.1073914,-0.4913025,0.8643341,0.112404,-0.03541141,0.9930314,
638549102217946480,1114596,86900,0.095047,-0.4608459,0.8823547,0.1125336,-0.4896393,0.864624,0.1112307,-0.03813038,0.9930629,
638549102218046483,1114606,86901,0.09619141,-0.4504852,0.8875732,0.1080627,-0.4651794,0.8785858,0.1102803,-0.04043315,0.9930778,
638549102218106484,1114612,86901,0.09777832,-0.444809,0.8902588,0.1000214,-0.4777527,0.8727722,0.1102803,-0.04043315,0.9930778,
638549102218206481,1114622,86902,0.08842468,-0.4488068,0.8892365,0.1006775,-0.4770813,0.8730621,0.1090905,-0.04273367,0.9931128,
638549102218291639,1114630,86903,0.08514404,-0.4502869,0.8888092,0.09991455,-0.473938,0.8748627,0.1078635,-0.04442646,0.9931726,
638549102218381640,1114639,86904,0.08818054,-0.4568787,0.8851318,0.1074066,-0.4792633,0.8710632,0.1067352,-0.04602509,0.9932216,
638549102218446767,1114646,86904,0.08903503,-0.466156,0.8802032,0.1088715,-0.4759827,0.8726807,0.1067352,-0.04602509,0.9932216,
638549102218536748,1114655,86905,0.08636475,-0.4615021,0.8829193,0.09994507,-0.4641571,0.8800812,0.1058487,-0.04730295,0.9932565,
638549102218616759,1114663,86906,0.09370422,-0.456192,0.8849182,0.1041565,-0.4642944,0.8795166,0.105154,-0.04846093,0.9932745,
638549102218701883,1114671,86906,0.09506226,-0.4525146,0.8866577,0.1098175,-0.4689178,0.8763733,0.105154,-0.04846093,0.9932745,
638549102218781879,1114679,86907,0.09165955,-0.4558105,0.8853302,0.1024475,-0.4683838,0.8775635,0.1044858,-0.04953985,0.9932917,
638549102218876975,1114689,86908,0.09272766,-0.4566498,0.8847809,0.1057434,-0.4771729,0.872406,0.1042119,-0.05062338,0.9932659,
638549102218946978,1114696,86909,0.09591675,-0.4465332,0.8896027,0.1098022,-0.4672241,0.8772888,0.1041979,-0.0515402,0.9932202,
638549102219036987,1114705,86909,0.09744263,-0.4436646,0.8908691,0.1105804,-0.4629974,0.879425,0.1041979,-0.0515402,0.9932202,
638549102219126970,1114714,86910,0.09700012,-0.4438629,0.8908234,0.1090546,-0.458313,0.8820648,0.1044948,-0.05237352,0.9931455,
638549102219206975,1114722,86911,0.09873962,-0.4467468,0.8891907,0.1100006,-0.4537048,0.8843231,0.1048609,-0.05330285,0.9930574,
638549102219286967,1114730,86912,0.09706116,-0.4532776,0.8860474,0.1058655,-0.447876,0.8878021,0.1056507,-0.05435144,0.9929168,
638549102219376970,1114739,86912,0.1041718,-0.4291992,0.897171,0.1055145,-0.4438019,0.8898773,0.1056507,-0.05435144,0.9929168,
638549102219456985,1114747,86913,0.1057587,-0.427948,0.897583,0.1164398,-0.450119,0.8853302,0.1063307,-0.0552807,0.992793,
638549102219536971,1114755,86914,0.09873962,-0.4230804,0.9006805,0.1140442,-0.4442291,0.8886108,0.1071721,-0.05606346,0.9926586,
638549102219616978,1114763,86915,0.1548462,-0.2868195,0.9453735,0.08201599,-0.4056549,0.9103241,0.108127,-0.0567624,0.9925153,
638549102219712089,1114772,86916,0.1305237,-0.2367401,0.9627533,0.07377625,-0.3502808,0.9337311,0.1088531,-0.05727712,0.9924063,
638549102219792091,1114780,86916,0.06434631,-0.2803497,0.9577332,0.06181335,-0.2875977,0.9557495,0.1088531,-0.05727712,0.9924063,
638549102219872106,1114788,86917,0.07476807,-0.2432098,0.9670715,0.06439209,-0.2451935,0.9673309,0.1096121,-0.05763874,0.9923019,
638549102219952100,1114796,86918,0.07063293,-0.1977234,0.9777069,0.07615662,-0.1655731,0.9832458,0.1104819,-0.05782592,0.9921945,
638549102220042093,1114805,86918,0.07537842,-0.1416168,0.9870453,0.07885742,-0.08753967,0.9930267,0.1104819,-0.05782592,0.9921945,
638549102220122089,1114813,86919,0.1026459,-0.06758118,0.9924164,0.09666443,-0.04273987,0.9943848,0.1111973,-0.05802689,0.9921029,
638549102220202089,1114821,86920,0.1359863,0.1581268,0.9779968,0.1042175,-0.03555298,0.9939117,0.1119921,-0.05799632,0.9920152,
638549102220302090,1114831,86921,0.1542969,0.2303619,0.9607849,0.1083221,-0.0001525879,0.9941101,0.112916,-0.05820552,0.9918982,
638549102220382105,1114839,86922,0.1501312,0.3109283,0.9384918,0.1174927,0.03408813,0.9924774,0.113514,-0.05814541,0.9918335,
638549102220467261,1114848,86922,0.1269226,-0.0009460449,0.9918976,0.138092,0.06481934,0.9882813,0.113514,-0.05814541,0.9918335,
638549102220547261,1114856,86923,0.1253204,0.04684448,0.9909973,0.1198273,0.09738159,0.9879913,0.1144638,-0.05838878,0.9917101,
638549102220627267,1114864,86924,0.1214294,0.06719971,0.9903107,0.1367645,0.1034241,0.9851837,0.114945,-0.05852276,0.9916465,
638549102220707722,1114872,86924,0.1417542,0.07185364,0.9872742,0.1379395,0.1253967,0.9824677,0.114945,-0.05852276,0.9916465,
638549102220788118,1114880,86925,0.1411896,0.09127808,0.9857483,0.1452026,0.1277924,0.9811096,0.1155756,-0.05858462,0.9915695,
638549102220878118,1114889,86926,0.1285706,0.09524536,0.9871063,0.146286,0.1407166,0.9791718,0.1160131,-0.05870337,0.9915114,
638549102220968121,1114898,86927,0.1406403,0.1100922,0.9839172,0.1375732,0.1577911,0.977829,0.1165167,-0.05889026,0.9914412,
638549102221038116,1114905,86927,0.1416321,0.1218719,0.9823761,0.1337128,0.1656494,0.977066,0.1165167,-0.05889026,0.9914412,
