time(100ns),time_stamp(ms),frame,gaze_direct_L.x,gaze_direct_L.y,gaze_direct_L.z,gaze_direct_R.x,gaze_direct_R.y,gaze_direct_R.z,forward.x,forward.y,forward.z,
638549095252059477,418007,31339,-0.08258057,0.1151886,0.9898987,-0.07588196,0.08357239,0.9936066,0.008680099,0.005415778,0.9999477,
638549095252159483,418017,31340,-0.08520508,0.1112061,0.9901276,-0.06637573,0.09446716,0.9933014,0.006939693,0.00705598,0.999951,
638549095252239484,418025,31341,-0.08282471,0.106842,0.9908142,-0.07997131,0.08363342,0.9932709,0.005396266,0.008797432,0.9999467,
638549095252329481,418034,31342,-0.08259583,0.1045837,0.9910736,-0.09625244,-0.01437378,0.9952393,0.004030544,0.0101813,0.99994,
638549095252409473,418042,31343,-0.07347107,0.1076508,0.9914551,-0.04801941,0.07752991,0.9958191,0.002130205,0.01158981,0.9999306,
638549095252489479,418050,31344,-0.07666016,0.103714,0.9916382,-0.1156921,0.0430603,0.9923401,0.0003590971,0.01330298,0.9999114,
638549095252559463,418057,31344,-0.07337952,0.09893799,0.9923706,-0.1040039,0.0473938,0.9934387,0.0003590971,0.01330298,0.9999114,
638549095252659479,418067,31345,-0.06738281,0.1054688,0.9921265,-0.08984375,0.05552673,0.9944,-0.0009037579,0.01467083,0.999892,
638549095252729510,418074,31346,-0.06239319,0.1081696,0.992157,-0.1394501,0.03459167,0.9896088,-0.001606871,0.01644333,0.9998635,
638549095252819492,418083,31347,-0.0643158,0.1047974,0.9924011,-0.09771729,0.05363464,0.9937592,-0.002159198,0.01840367,0.9998283,
638549095252889840,418090,31347,-0.06442261,0.09912109,0.992981,-0.1261292,0.0353241,0.9913788,-0.002159198,0.01840367,0.9998283,
638549095252978785,418099,31348,-0.0606842,0.09484863,0.9936371,-0.06173706,0.05659485,0.9964752,-0.003080453,0.02033184,0.9997885,
638549095253059817,418107,31349,-0.06292725,0.09487915,0.9934845,-0.119812,-0.008468628,0.9927521,-0.004051273,0.02276591,0.9997326,
638549095253139807,418115,31349,-0.05618286,0.09811401,0.993576,-0.05717468,0.06124878,0.9964752,-0.004051273,0.02276591,0.9997326,
638549095253229806,418124,31350,-0.05804443,0.09207153,0.9940491,-0.05284119,0.05456543,0.9971008,-0.004971137,0.02526114,0.9996685,
638549095253309801,418132,31351,-0.06111145,0.09565735,0.9935303,-0.04489136,0.04603577,0.9979248,-0.005609524,0.02801139,0.9995919,
638549095253404887,418142,31352,-0.05960083,0.09158325,0.9940033,-0.1313324,-0.001037598,0.991333,-0.006376501,0.03070188,0.9995083,
638549095253474891,418149,31352,-0.05592346,0.08782959,0.9945526,-0.1092377,-0.006240845,0.993988,-0.006376501,0.03070188,0.9995083,
638549095253569994,418158,31353,-0.06634521,0.08439636,0.9942169,-0.03831482,0.04943848,0.9980316,-0.007616151,0.03388244,0.9993968,
638549095253645112,418166,31354,-0.06095886,0.09420776,0.9936829,-0.1151276,0.02328491,0.9930725,-0.008519821,0.03683556,0.999285,
638549095253735117,418175,31355,-0.04995728,0.137558,0.9892273,-0.06048584,0.1133728,0.9916992,-0.009668656,0.04052743,0.9991316,
638549095253815100,418183,31356,-0.05192566,0.1763763,0.9829407,-0.05638123,0.1489868,0.9872284,-0.01033718,0.04452134,0.998955,
638549095253895108,418191,31356,-0.04701233,0.2015533,0.9783325,-0.05607605,0.1634216,0.9849548,-0.01033718,0.04452134,0.998955,
638549095253975102,418199,31357,-0.03981018,0.2286377,0.9726868,-0.05200195,0.2013397,0.9781342,-0.01096641,0.04870528,0.998753,
638549095254070212,418208,31358,-0.04623413,0.241806,0.9692078,-0.04260254,0.2213593,0.9742584,-0.01183885,0.05315528,0.9985161,
638549095254140202,418215,31358,-0.06529236,0.2465057,0.9669342,-0.04681396,0.2162781,0.9752045,-0.01183885,0.05315528,0.9985161,
638549095254230206,418224,31359,-0.06309509,0.2264862,0.9719543,-0.02871704,0.2282867,0.9731598,-0.01249802,0.05778597,0.9982508,
638549095254310201,418232,31360,-0.0559845,0.2360535,0.970108,-0.05305481,0.2122803,0.9757538,-0.01281958,0.06306673,0.997927,
638549095254405289,418242,31361,-0.06236267,0.2303314,0.9710999,-0.04733276,0.2175446,0.9748993,-0.01326832,0.06845994,0.9975656,
638549095254475288,418249,31362,-0.06672668,0.2176514,0.9737396,-0.06126404,0.1700897,0.9835205,-0.0132225,0.07422645,0.9971538,
638549095254565282,418258,31362,-0.05085754,0.2137756,0.9755554,-0.04450989,0.1915588,0.9804535,-0.0132225,0.07422645,0.9971538,
638549095254645285,418266,31363,-0.0453186,0.2137909,0.9758148,-0.07475281,0.1859894,0.9796906,-0.01325968,0.08034179,0.9966792,
638549095254735293,418275,31364,-0.04811096,0.2073669,0.977066,-0.05343628,0.1788788,0.9824066,-0.01304596,0.08663458,0.9961547,
638549095254815282,418283,31365,-0.04975891,0.1980896,0.9789124,-0.07121277,0.1707916,0.9827118,-0.01305576,0.09290291,0.9955896,
638549095254895281,418291,31365,-0.05278015,0.1802979,0.982193,-0.07563782,0.162323,0.9838257,-0.01305576,0.09290291,0.9955896,
638549095254985288,418300,31366,-0.05140686,0.1937866,0.9796906,-0.05804443,0.1461639,0.9875488,-0.01306828,0.09880123,0.9950214,
638549095255060397,418307,31367,0.01179504,-0.1015625,0.994751,-0.06085205,0.1077576,0.9923096,-0.01370582,0.1049069,0.9943876,
638549095255150395,418316,31368,0.01728821,-0.1092377,0.9938507,-0.05317688,0.1483154,0.9875031,-0.01381434,0.1109359,0.9937316,
638549095255230389,418324,31368,0.01522827,-0.1062469,0.9942169,-0.0741272,0.1213989,0.9898224,-0.01381434,0.1109359,0.9937316,
638549095255310397,418332,31369,0.02476501,-0.1100616,0.9936066,-0.04238892,0.03012085,0.998642,-0.01404008,0.1167759,0.993059,
638549095255400389,418341,31370,0.009674072,-0.1219482,0.9924774,-0.07821655,-0.01663208,0.9967957,-0.01449211,0.1225995,0.9923504,
638549095255480385,418349,31371,-0.03649902,-0.1088715,0.9933777,-0.1132813,-0.008956909,0.993515,-0.01496263,0.1282347,0.991631,
638549095255570398,418358,31371,-0.06356812,0.1726837,0.9829102,-0.06059265,0.1406708,0.9881897,-0.01496263,0.1282347,0.991631,
638549095255650386,418366,31372,-0.02886963,-0.1204224,0.9922943,-0.001464844,-0.3306122,0.9437561,-0.01536904,0.1336541,0.9909089,
638549095255730401,418374,31373,-0.02227783,-0.1165619,0.9929199,0.01019287,-0.3312683,0.9434662,-0.01566821,0.1384037,0.990252,
638549095255810386,418382,31373,0.05329895,-0.4093323,0.9108124,0.0163269,-0.3387756,0.9407196,-0.01566821,0.1384037,0.990252,
638549095255900386,418391,31374,-0.07012939,0.1543427,0.9855194,0.01353455,-0.3482056,0.9373016,-0.01588605,0.1430914,0.989582,
638549095255990385,418400,31375,0.05187988,-0.41185,0.9097595,-0.01367188,-0.3420105,0.9395905,-0.01615764,0.1473614,0.9889507,
638549095256060400,418407,31376,0.04129028,-0.4226227,0.9053497,-0.05226135,0.1003418,0.993576,-0.01687017,0.1515069,0.9883122,
638549095256140393,418415,31376,-0.06472778,0.1209259,0.9905396,0.01052856,-0.3588562,0.9333191,-0.01687017,0.1515069,0.9883122,
638549095256230401,418424,31377,0.03573608,-0.4149323,0.9091339,-0.05027771,0.08816528,0.9948273,-0.01724941,0.155273,0.987721,
638549095256320386,418433,31378,-0.06455994,0.132019,0.9891357,0.01194763,-0.3538208,0.9352264,-0.01769719,0.1588108,0.9871504,
638549095256400393,418441,31379,0.04000854,-0.4307404,0.9015808,-0.09686279,-0.3256836,0.9404907,-0.01860158,0.1620298,0.9866105,
638549095256480385,418449,31379,0.03468323,-0.4264679,0.9038239,-0.05102539,0.09184265,0.9944611,-0.01860158,0.1620298,0.9866105,
638549095256560395,418457,31380,-0.05535889,0.1177063,0.9915009,0.00819397,-0.5218658,0.8529663,-0.0194988,0.1650039,0.9861001,
638549095256650386,418466,31381,0.02578735,-0.4278717,0.9034576,-0.05932617,0.07643127,0.9953003,-0.02032184,0.1678837,0.9855973,
638549095256740399,418475,31382,-0.07531738,0.1318207,0.9884033,-0.00630188,-0.5356598,0.8444061,-0.02122689,0.1703252,0.9851592,
638549095256810399,418482,31382,0.01617432,-0.2806244,0.959671,-0.01109314,-0.5182495,0.8551483,-0.02122689,0.1703252,0.9851592,
638549095256900405,418491,31383,0.08805847,-0.5311432,0.8426819,-0.02207947,-0.5260925,0.8501282,-0.02235167,0.1727933,0.9847045,
638549095256990401,418500,31384,-0.06117249,0.08435059,0.9945526,-0.04829407,0.08349609,0.9953308,-0.0234115,0.1744915,0.9843803,
638549095257050393,418506,31384,0.09004211,-0.5136108,0.8532715,0.01521301,-0.5858917,0.8102264,-0.0234115,0.1744915,0.9843803,
638549095257130392,418514,31385,0.09545898,-0.5107117,0.8544159,0.0004425049,-0.5364075,0.8439484,-0.02473041,0.1757423,0.9841256,
638549095257230396,418524,31386,0.05696106,-0.5406952,0.8392792,-0.02676392,-0.5443878,0.8383942,-0.02604833,0.1767262,0.9839153,
638549095257300387,418531,31387,-0.02674866,-0.4540405,0.890564,0,0,0,-0.02772671,0.1770319,0.9838145,
638549095257395487,418541,31387,-0.0289917,-0.4636383,0.8855286,-0.1220551,0.07202148,0.9898987,-0.02772671,0.1770319,0.9838145,
638549095257475728,418549,31388,-0.1332703,0.08129883,0.9877319,-0.1362762,0.03170776,0.9901581,-0.02921787,0.1768114,0.983811,
638549095257565727,418558,31389,-0.03860474,-0.4722595,0.8806,-0.1924744,-0.6070709,0.7709656,-0.03071028,0.1760707,0.9838983,
638549095257645729,418566,31390,-0.1426849,0.06341553,0.9877319,-0.1349792,0.05010986,0.9895782,-0.03214699,0.1753626,0.9839789,
638549095257725726,418574,31390,-0.04084778,-0.4776917,0.8775635,-0.1270905,0.01626587,0.991745,-0.03214699,0.1753626,0.9839789,
638549095257805732,418582,31391,-0.1454468,0.05845642,0.9876251,-0.1572266,-0.341156,0.9267578,-0.03376273,0.1743441,0.9841058,
638549095257905729,418592,31392,-0.03843689,-0.4739075,0.8797302,0,0,0,-0.03515975,0.1733056,0.9842403,
638549095257985738,418600,31393,-0.03887939,-0.4841461,0.8740997,0,0,0,-0.03671869,0.1718449,0.9844395,
638549095258060843,418607,31393,-0.1300201,0.06074524,0.9896393,-0.1598969,0.01870728,0.9869537,-0.03671869,0.1718449,0.9844395,
638549095258140842,418615,31394,-0.0977478,-0.2117004,0.9724274,0,0,0,-0.03827469,0.1704961,0.9846147,
638549095258240834,418625,31395,-0.158371,0.06506348,0.9852295,-0.1362915,0.03048706,0.9901886,-0.03977923,0.1690397,0.9848062,
638549095258310834,418632,31396,-0.03216553,-0.4800415,0.8766479,-0.1949463,-0.5946503,0.7799683,-0.04138998,0.1675204,0.9849994,
638549095258400838,418641,31397,-0.1544037,0.06716919,0.9857178,-0.1330719,0.03190613,0.9905853,-0.04322325,0.1659317,0.9851896,
638549095258475963,418649,31397,-0.03147888,-0.472641,0.8806915,-0.1806946,-0.5792236,0.7948761,-0.04322325,0.1659317,0.9851896,
638549095258565965,418658,31398,-0.03793335,-0.4851532,0.8735962,-0.05429077,-0.4819183,0.874527,-0.04520607,0.1638232,0.9854534,
638549095258651096,418666,31399,-0.1546783,0.05923462,0.9861755,-0.1400146,0.1301575,0.9815521,-0.04772048,0.1616965,0.9856861,
638549095258731120,418674,31399,-0.1263733,-0.2276459,0.9654999,-0.06156921,-0.4629517,0.8842316,-0.04772048,0.1616965,0.9856861,
638549095258811097,418682,31400,-0.1459198,0.03286743,0.988739,-0.09570313,-0.4566803,0.8844604,-0.05054936,0.1591628,0.9859574,
638549095258901096,418691,31401,-0.1309052,-0.2335205,0.9634857,-0.1474609,0.0292511,0.9886322,-0.05382086,0.1568532,0.9861543,
638549095258977969,418699,31402,-0.1656799,0.05612183,0.9845734,-0.1128082,-0.4435272,0.8891296,-0.05756879,0.15362,0.9864516,
638549095259061110,418707,31402,-0.1335449,-0.240097,0.9615021,-0.1058655,-0.4485168,0.8874664,-0.05756879,0.15362,0.9864516,
638549095259141100,418715,31403,-0.165329,-0.2507172,0.9538269,-0.1615295,-0.007827759,0.9868317,-0.06155907,0.150335,0.9867167,
638549095259231103,418724,31404,-0.1668701,0.03178406,0.9854584,-0.03999329,-0.4145966,0.9091187,-0.06620066,0.1471171,0.9869012,
638549095259311093,418732,31405,-0.1259766,-0.2261353,0.9659119,-0.1846771,0.02871704,0.9823761,-0.07086574,0.1432535,0.9871456,
638549095259391105,418740,31405,-0.05691528,-0.1141205,0.9918213,-0.1176605,-0.4583435,0.8809357,-0.07086574,0.1432535,0.9871456,
638549095259476181,418749,31406,-0.07763672,-0.2505798,0.9649658,-0.04182434,-0.476059,0.8784027,-0.07542178,0.1397958,0.9873037,
638549095259566189,418758,31407,-0.1427765,0.0262146,0.9893951,-0.0146637,-0.3586273,0.9333496,-0.08010173,0.1364934,0.9873972,
638549095259651293,418766,31408,-0.1465149,-0.002563477,0.9891968,-0.01344299,-0.3305817,0.9436798,-0.08455925,0.1340754,0.9873568,
638549095259731298,418774,31408,-0.1441193,-0.01072693,0.989502,-0.1328125,-0.01766968,0.9909821,-0.08455925,0.1340754,0.9873568,
638549095259811295,418782,31409,-0.1405182,0.01455688,0.9899597,-0.125412,-0.02400208,0.991806,-0.08879026,0.1312803,0.987361,
638549095259901308,418791,31410,-0.1398926,-0.003158569,0.9901581,-0.146225,-0.2402649,0.9596252,-0.09285618,0.1291084,0.9872734,
638549095259981317,418799,31411,-0.1555328,0.003890991,0.9878082,-0.1800537,-0.1276245,0.9753265,-0.09649025,0.1268513,0.9872175,
638549095260071301,418808,31411,-0.1511841,-0.001327515,0.9884949,-0.1283264,-0.2176361,0.9675446,-0.09649025,0.1268513,0.9872175,
638549095260151299,418816,31412,-0.1381226,0.01600647,0.9902802,-0.1451263,-0.09498596,0.9848328,-0.09991361,0.1247485,0.9871449,
638549095260241321,418825,31413,-0.1334839,0.01522827,0.990921,-0.1495361,-0.09254456,0.9844055,-0.1028742,0.1227063,0.9870968,
638549095260311298,418832,31414,-0.141449,0.01141357,0.9898682,-0.1581116,-0.09182739,0.983139,-0.1055222,0.1207412,0.9870596,
638549095260391296,418840,31414,-0.1448212,0.01451111,0.9893494,-0.1522217,0.04669189,0.9872284,-0.1055222,0.1207412,0.9870596,
638549095260476401,418849,31415,-0.1416168,0.02223206,0.9896698,-0.1224365,0.01449585,0.9923553,-0.1082055,0.1191342,0.9869643,
638549095260566397,418858,31416,-0.1368256,0.0131073,0.9904938,-0.1544037,-0.0171051,0.987854,-0.1101192,0.1175755,0.9869396,
638549095260651542,418866,31417,-0.138504,0.01924133,0.9901733,-0.1585693,0.02468872,0.98703,-0.1122752,0.1159841,0.986885,
638549095260731537,418874,31417,-0.1417847,0.01593018,0.9897614,-0.1517792,0.01860046,0.9882355,-0.1122752,0.1159841,0.986885,
638549095260811517,418882,31418,-0.1387024,0.01429749,0.9902191,-0.1776886,0.02102661,0.9838562,-0.1140011,0.1142693,0.9868872,
638549095260901535,418891,31419,-0.1373596,0.015625,0.990387,-0.136261,-0.01620483,0.9905396,-0.1157758,0.1129455,0.986833,
638549095260971526,418898,31420,-0.1546783,-0.008056641,0.9879303,-0.1840515,0.01657104,0.9827728,-0.1170737,0.1108296,0.9869197,
638549095261061521,418907,31420,-0.1585236,-0.01911926,0.9871674,-0.1794891,-0.0131073,0.9836578,-0.1170737,0.1108296,0.9869197,
638549095261141519,418915,31421,-0.1725922,-0.03059387,0.9845123,-0.1766663,-0.03929138,0.9834747,-0.1177795,0.1087241,0.98707,
638549095261231541,418924,31422,-0.1828918,-0.04072571,0.9822845,-0.1865997,-0.08442688,0.9787903,-0.1186398,0.1064523,0.9872145,
638549095261311528,418932,31423,-0.1715088,-0.05296326,0.9837494,-0.1526337,-0.08790588,0.9843597,-0.1193581,0.1038644,0.9874036,
638549095261391530,418940,31423,-0.1737518,-0.06106567,0.9828796,-0.1870575,-0.07884216,0.9791718,-0.1193581,0.1038644,0.9874036,
638549095261476647,418949,31424,-0.176651,-0.06204224,0.9822998,-0.182251,-0.08033752,0.97995,-0.1198147,0.1016571,0.987578,
638549095261566653,418958,31425,-0.1813965,-0.06028748,0.9815521,-0.1810303,-0.07069397,0.9809265,-0.1200179,0.09978361,0.9877444,
638549095261641767,418965,31426,-0.1871948,-0.0484314,0.9811249,-0.1905365,-0.06253052,0.9796753,-0.1200056,0.0982149,0.9879031,
638549095261731771,418974,31427,-0.1929016,-0.05395508,0.9797211,-0.182663,-0.07247925,0.980484,-0.1200898,0.09657901,0.9880541,
638549095261811773,418982,31427,-0.1918945,-0.0511322,0.980072,-0.1895599,-0.07290649,0.9791412,-0.1200898,0.09657901,0.9880541,
638549095261891774,418990,31428,-0.1924744,-0.05715942,0.9796295,-0.184082,-0.07673645,0.9799042,-0.1198117,0.09500669,0.9882403,
638549095261971777,418998,31429,-0.1912994,-0.05703735,0.9798584,-0.2028809,-0.07279968,0.9764862,-0.1198212,0.09317941,0.9884131,
638549095262061783,419007,31429,-0.1915894,-0.04736328,0.9803162,-0.2322388,-0.0382843,0.9718933,-0.1198212,0.09317941,0.9884131,
638549095262141784,419015,31430,-0.1971893,-0.04452515,0.9793396,-0.2064209,-0.09454346,0.973877,-0.1197868,0.09123676,0.9885985,
638549095262231773,419024,31431,-0.1940765,-0.04840088,0.9797821,-0.2023163,-0.06881714,0.9768829,-0.1198113,0.08905836,0.9887941,
638549095262321784,419033,31432,-0.1994019,-0.04971313,0.978653,-0.2029724,-0.1288452,0.9706573,-0.1199482,0.08686808,0.9889724,
638549095262401777,419041,31432,-0.1961365,-0.04812622,0.9793854,-0.2145844,-0.09036255,0.9725037,-0.1199482,0.08686808,0.9889724,
638549095262472078,419048,31433,-0.1943817,-0.04570007,0.9798584,-0.2273102,-0.0881958,0.9698181,-0.1200308,0.08442905,0.9891736,
638549095262572078,419058,31434,-0.1960907,-0.04750061,0.9794312,-0.2103271,-0.09651184,0.9728394,-0.1204164,0.08220667,0.9893139,
638549095262642370,419065,31435,-0.2004547,-0.0446167,0.9786835,-0.2118988,-0.09669495,0.9724884,-0.1206792,0.07981591,0.9894776,
638549095262737217,419075,31436,-0.1953888,-0.0640564,0.9786224,-0.2116699,-0.07978821,0.9740753,-0.1211726,0.0773785,0.9896109,
638549095262807219,419082,31436,-0.1959229,-0.07011414,0.9781036,-0.2058868,-0.0847168,0.9748993,-0.1211726,0.0773785,0.9896109,
638549095262907221,419092,31437,-0.2090302,-0.0582428,0.9761658,-0.2098083,-0.06237793,0.9757385,-0.1219477,0.07484585,0.9897105,
638549095262987233,419100,31438,-0.2103271,-0.05412292,0.97612,-0.2017822,-0.07067871,0.9768677,-0.1225179,0.07210317,0.9898437,
638549095263057231,419107,31438,-0.1992188,-0.07514954,0.977066,-0.2117767,-0.06158447,0.9753723,-0.1225179,0.07210317,0.9898437,
638549095263132368,419114,31439,-0.2176361,-0.05444336,0.9745026,-0.2089233,-0.07997131,0.9746399,-0.1233656,0.06949367,0.989925,
638549095263232364,419125,31440,-0.1997986,-0.07699585,0.9767914,-0.2083282,-0.08016968,0.974762,-0.1242225,0.06694129,0.9899938,
638549095263302370,419131,31441,-0.1984558,-0.0721283,0.9774475,-0.2243805,-0.07823181,0.971344,-0.1250382,0.06455481,0.9900495,
638549095263392374,419141,31441,-0.2082214,-0.07943726,0.9748383,-0.2343903,-0.09458923,0.967514,-0.1250382,0.06455481,0.9900495,
638549095263472370,419148,31442,-0.2017822,-0.0811615,0.976059,-0.2177277,-0.09411621,0.9714508,-0.1255018,0.06242909,0.9901272,
638549095263572366,419158,31443,-0.2056122,-0.07827759,0.9754944,-0.2241821,-0.09338379,0.970047,-0.1264343,0.06076884,0.9901119,
638549095263652382,419167,31444,-0.212204,-0.07974243,0.9739532,-0.2329559,-0.1020203,0.9671173,-0.1271186,0.05928748,0.990114,
638549095263722368,419173,31444,-0.2146301,-0.07263184,0.9739838,-0.2342834,-0.1087189,0.9660645,-0.1271186,0.05928748,0.990114,
638549095263822371,419183,31445,-0.2186279,-0.07106018,0.9732056,-0.2336731,-0.08900452,0.9682159,-0.1278583,0.05809896,0.9900893,
638549095263892369,419190,31446,-0.20961,-0.07073975,0.9752045,-0.2289276,-0.08122253,0.9700317,-0.128513,0.05659311,0.9900917,
638549095263982381,419199,31447,-0.2214355,-0.06872559,0.9727325,-0.230835,-0.05836487,0.9712219,-0.129039,0.05547186,0.9900868,
638549095264062370,419208,31447,-0.2227783,-0.07084656,0.9722748,-0.2288208,-0.05149841,0.9720917,-0.129039,0.05547186,0.9900868,
638549095264142367,419215,31448,-0.2160645,-0.06716919,0.9740601,-0.2280121,-0.06640625,0.9713745,-0.1295033,0.05453768,0.990078,
638549095264232367,419225,31449,-0.2199554,-0.0690918,0.973053,-0.2307281,-0.04745483,0.9718475,-0.1301576,0.05358727,0.9900441,
638549095264312377,419232,31450,-0.2283173,-0.06680298,0.971283,-0.2235565,-0.07997131,0.9713898,-0.1307953,0.05271874,0.9900067,
638549095264399099,419241,31450,-0.2234039,-0.07124329,0.9721069,-0.2412872,-0.08459473,0.9667511,-0.1307953,0.05271874,0.9900067,
638549095264469087,419248,31451,-0.2306976,-0.07591248,0.970047,-0.2411041,-0.07351685,0.9676971,-0.1311606,0.05208776,0.9899918,
638549095264569089,419258,31452,-0.2259827,-0.07278442,0.971405,-0.2346344,-0.05731201,0.9703827,-0.1314283,0.05157055,0.9899834,
638549095264641603,419265,31453,-0.2310181,-0.07254028,0.9702301,-0.2368622,-0.06443787,0.9693909,-0.1318741,0.05089698,0.9899589,
638549095264735901,419275,31454,-0.230957,-0.07836914,0.9697876,-0.2387085,-0.07579041,0.9681244,-0.1320309,0.05059505,0.9899535,
638549095264805881,419282,31454,-0.2228699,-0.07913208,0.9716187,-0.2409821,-0.07507324,0.9676056,-0.1320309,0.05059505,0.9899535,
