time(100ns),time_stamp(ms),frame,gaze_direct_L.x,gaze_direct_L.y,gaze_direct_L.z,gaze_direct_R.x,gaze_direct_R.y,gaze_direct_R.z,forward.x,forward.y,forward.z,
638503279242784476,177707,12418,0.03379822,0.09970093,0.9944305,0.03421021,0.07409668,0.9966583,-0.01377438,0.2161272,0.9762681,
638503279242864481,177715,12420,0.03404236,0.09999084,0.9944,0.03778076,0.07450867,0.9964905,-0.01516176,0.215211,0.9764498,
638503279242934460,177722,12420,0.03442383,0.1009369,0.9942932,0.0378418,0.07472229,0.9964752,-0.01516176,0.215211,0.9764498,
638503279243014471,177730,12421,0.03512573,0.1074524,0.993576,0.03910828,0.07484436,0.9964142,-0.01602682,0.2147636,0.9765345,
638503279243104468,177739,12422,0.03471375,0.1081848,0.993515,0.01402283,0.09431458,0.9954376,-0.01621922,0.2142048,0.9766541,
638503279243194469,177748,12423,0.03575134,0.1074219,0.9935608,0.01385498,0.09259033,0.9956055,-0.01675782,0.2135926,0.9767791,
638503279243264463,177755,12423,0.03730774,0.1063538,0.9936218,0.01486206,0.09806824,0.9950562,-0.01675782,0.2135926,0.9767791,
638503279243364460,177765,12424,0.03839111,0.1072693,0.9934845,0.01586914,0.09954834,0.9949036,-0.01717619,0.2130515,0.97689,
638503279243434481,177772,12425,0.03930664,0.1060181,0.993576,0.01719666,0.09947205,0.9948883,-0.01796861,0.2124777,0.9770007,
638503279243514484,177780,12425,0.03842163,0.1063232,0.993576,0.01731873,0.09947205,0.9948883,-0.01796861,0.2124777,0.9770007,
638503279243604463,177789,12426,0.03756714,0.1069946,0.9935455,0.01708984,0.09947205,0.9948883,-0.0186435,0.2119231,0.9771085,
638503279243684476,177797,12427,0.03546143,0.1087341,0.9934235,0.01785278,0.09991455,0.9948273,-0.01968219,0.2113733,0.9772072,
638503279243764466,177805,12428,0.03491211,0.1063843,0.9936981,0.01922607,0.09910583,0.9948883,-0.02047624,0.2110873,0.9772527,
638503279243854459,177814,12429,0.03474426,0.107193,0.9936218,0.01950073,0.09837341,0.9949493,-0.02149507,0.2112598,0.9771935,
638503279243934462,177822,12429,0.0345459,0.113205,0.9929657,0.02017212,0.0974884,0.9950256,-0.02149507,0.2112598,0.9771935,
638503279244014463,177830,12430,0.03581238,0.1139679,0.9928284,0.02166748,0.09861755,0.9948883,-0.02239549,0.2109987,0.9772298,
638503279244104465,177839,12431,0.03573608,0.1137238,0.9928589,0.02223206,0.09864807,0.994873,-0.02313124,0.2110302,0.9772058,
638503279244184460,177847,12432,0.03546143,0.1137848,0.9928589,0.02415466,0.09539795,0.9951324,-0.0242117,0.210929,0.9772015,
638503279244264460,177855,12432,0.03683472,0.1134796,0.9928436,0.02380371,0.09359741,0.9953156,-0.0242117,0.210929,0.9772015,
638503279244344471,177863,12433,0.03710938,0.1137085,0.9928131,0.02467346,0.09385681,0.9952698,-0.02475073,0.2110156,0.9771693,
638503279244434464,177872,12434,0.03681946,0.1139069,0.9927979,0.02467346,0.0947113,0.9951935,-0.02540014,0.2107153,0.9772174,
638503279244514457,177880,12435,0.03692627,0.1130524,0.9928894,0.02763367,0.09585571,0.9950104,-0.02603544,0.2103923,0.9772703,
638503279244594460,177888,12435,0.03805542,0.1132355,0.9928284,0.02850342,0.09719849,0.9948425,-0.02603544,0.2103923,0.9772703,
638503279244684457,177897,12436,0.03994751,0.1126862,0.9928131,0.02815247,0.09733582,0.9948425,-0.02670508,0.2101327,0.9773081,
638503279244774458,177906,12437,0.0410614,0.1128845,0.9927521,0.02975464,0.09768677,0.9947662,-0.02690434,0.2100853,0.9773128,
638503279244844465,177913,12437,0.0410614,0.1134796,0.9926758,0.02859497,0.09625244,0.9949341,-0.02690434,0.2100853,0.9773128,
638503279244944469,177923,12438,0.04107666,0.111908,0.9928589,0.02749634,0.09680176,0.9949188,-0.02723459,0.2103903,0.9772381,
638503279245024470,177931,12439,0.03038025,0.1161957,0.9927521,0.01477051,0.0978241,0.9950867,-0.02739598,0.2106333,0.9771812,
638503279245094486,177938,12440,-0.02015686,0.1313934,0.9911194,-0.05554199,0.08525085,0.9947968,-0.02713132,0.2111393,0.9770794,
638503279245184460,177947,12441,-0.08323669,0.1282654,0.9882355,-0.09565735,0.1102905,0.9892731,-0.02721146,0.2113822,0.9770246,
638503279245264471,177955,12441,-0.06130981,0.1181335,0.9910889,-0.07937622,0.1048737,0.9913025,-0.02721146,0.2113822,0.9770246,
638503279245357302,177964,12442,-0.05551147,0.1239929,0.9907227,-0.07659912,0.103241,0.9916992,-0.02705055,0.2119155,0.9769136,
638503279245427302,177971,12443,-0.06222534,0.1287231,0.9897156,-0.08422852,0.1019897,0.9912109,-0.02671298,0.2124081,0.9768159,
638503279245521582,177980,12444,-0.06796265,0.1274261,0.989502,-0.09239197,0.1018372,0.9904938,-0.02650101,0.212893,0.976716,
638503279245601580,177988,12444,-0.06874084,0.1254578,0.9897003,-0.09048462,0.1025848,0.9905853,-0.02650101,0.212893,0.976716,
638503279245691576,177997,12445,-0.06826782,0.1252747,0.9897614,-0.09544373,0.09558105,0.9908295,-0.02636851,0.2134687,0.976594,
638503279245761577,178004,12446,-0.06803894,0.1252136,0.9897919,-0.0965271,0.1018677,0.990097,-0.02623381,0.2138869,0.9765061,
638503279245851579,178013,12447,-0.07203674,0.1242371,0.989624,-0.09823608,0.09841919,0.9902802,-0.0262703,0.2142027,0.9764359,
638503279245931580,178021,12447,-0.07574463,0.1231384,0.9894867,-0.1034393,0.1044312,0.9891357,-0.0262703,0.2142027,0.9764359,
638503279246011586,178029,12448,-0.07592773,0.1218872,0.989624,-0.1082458,0.09970093,0.9891052,-0.02668031,0.214608,0.9763358,
638503279246101578,178038,12449,-0.07601929,0.12117,0.9897156,-0.1015778,0.1016083,0.9896088,-0.02740803,0.2151415,0.9761982,
638503279246181581,178046,12450,-0.07867432,0.1200562,0.9896393,-0.1110687,0.09509277,0.9892426,-0.02859247,0.2161729,0.9759364,
638503279246261580,178054,12450,-0.08131409,0.1189728,0.9895477,-0.110733,0.101593,0.9886322,-0.02859247,0.2161729,0.9759364,
638503279246351584,178063,12451,-0.09706116,0.1093903,0.9892426,-0.1177216,0.09867859,0.9881287,-0.03081543,0.2170417,0.9756758,
638503279246431591,178071,12452,-0.1056824,0.1139374,0.9878387,-0.1115723,0.1013947,0.9885559,-0.03274794,0.2179141,0.9754184,
638503279246511584,178079,12452,-0.1111908,0.1107788,0.9875946,-0.1221466,0.09797668,0.9876556,-0.03274794,0.2179141,0.9754184,
638503279246601577,178088,12453,-0.1204834,0.1109161,0.986496,-0.1265869,0.08773804,0.9880524,-0.03542757,0.2187103,0.9751465,
638503279246681577,178096,12454,-0.1165924,0.1130676,0.9867096,-0.1287537,0.08346558,0.9881439,-0.03829831,0.2196396,0.9748291,
638503279246761591,178104,12455,-0.1223907,0.1077271,0.9866028,-0.1375122,0.09132385,0.9862671,-0.04166212,0.2204901,0.974499,
638503279246861577,178114,12456,-0.1236267,0.1087952,0.9863434,-0.1369171,0.08699036,0.9867401,-0.04534734,0.2211291,0.9741897,
638503279246931580,178121,12456,-0.1248627,0.109436,0.9861145,-0.1397858,0.0761261,0.9872437,-0.04534734,0.2211291,0.9741897,
638503279247011583,178129,12457,-0.1284332,0.1098328,0.985611,-0.1475067,0.07884216,0.9859009,-0.04945731,0.2219047,0.9738133,
638503279247091580,178137,12458,-0.131958,0.1101685,0.9851074,-0.1479187,0.07736206,0.9859619,-0.05365375,0.2225234,0.9734498,
638503279247181577,178146,12458,-0.1320343,0.1105804,0.9850464,-0.1403198,0.07185364,0.9874878,-0.05365375,0.2225234,0.9734498,
638503279247261584,178154,12459,-0.1321106,0.1109467,0.9850006,-0.1484222,0.08468628,0.9852753,-0.05809901,0.2232215,0.9730348,
638503279247361584,178164,12460,-0.133606,0.105484,0.9853973,-0.1523895,0.0834198,0.984787,-0.06258394,0.2238887,0.9726033,
638503279247431586,178171,12461,-0.1351013,0.1000519,0.9857635,-0.1523285,0.0838623,0.9847565,-0.0672126,0.2243118,0.9721968,
638503279247521576,178180,12461,-0.1345062,0.1012726,0.9857178,-0.1520691,0.08004761,0.9851074,-0.0672126,0.2243118,0.9721968,
638503279247591589,178187,12462,-0.1339111,0.1025238,0.985672,-0.1518097,0.07615662,0.9854584,-0.0718183,0.2249849,0.9717119,
638503279247681591,178196,12463,-0.1335449,0.1037598,0.9855804,-0.1518707,0.07579041,0.9854889,-0.07662595,0.2252327,0.9712871,
638503279247761589,178204,12463,-0.1331787,0.1050873,0.9854889,-0.1519165,0.07542419,0.9855042,-0.07662595,0.2252327,0.9712871,
638503279247841583,178212,12464,-0.1334686,0.1018829,0.9857941,-0.1513519,0.07550049,0.9855804,-0.08171623,0.2253844,0.9708369,
638503279247931578,178221,12465,-0.1337585,0.09861755,0.986084,-0.1511536,0.07546997,0.985611,-0.08660062,0.2258616,0.9703025,
638503279248011587,178229,12466,-0.1346283,0.09649658,0.9861755,-0.1513214,0.07614136,0.9855347,-0.09165212,0.2262113,0.9697568,
638503279248091579,178237,12466,-0.1347198,0.09645081,0.9861755,-0.1515045,0.07687378,0.9854584,-0.09165212,0.2262113,0.9697568,
638503279248181580,178246,12467,-0.137207,0.09867859,0.985611,-0.1516266,0.07614136,0.9854889,-0.09683152,0.226611,0.96916,
638503279248261580,178254,12468,-0.1404114,0.09510803,0.9855042,-0.1517334,0.07543945,0.9855347,-0.1020754,0.2267856,0.9685809,
638503279248351592,178263,12469,-0.1406708,0.09344482,0.9856262,-0.1519165,0.07518005,0.9855194,-0.1073846,0.2271315,0.9679255,
638503279248431580,178271,12469,-0.1405334,0.09216309,0.9857635,-0.1518555,0.0749054,0.9855499,-0.1073846,0.2271315,0.9679255,
638503279248511589,178279,12470,-0.1405182,0.0896759,0.9859924,-0.1516418,0.07418823,0.9856415,-0.1125649,0.2273842,0.9672774,
638503279248591578,178287,12471,-0.1417542,0.09004211,0.9857941,-0.1514282,0.07345581,0.985733,-0.1178134,0.2277394,0.9665685,
638503279248691588,178297,12472,-0.1417542,0.08865356,0.9859161,-0.1520386,0.07252502,0.9857025,-0.1229497,0.2277814,0.9659187,
638503279248761582,178304,12472,-0.1418457,0.09016418,0.9857635,-0.1525116,0.07229614,0.9856415,-0.1229497,0.2277814,0.9659187,
638503279248841582,178312,12473,-0.1421509,0.0901947,0.9857178,-0.1529083,0.07234192,0.9855804,-0.1284304,0.2279963,0.9651545,
638503279248931580,178321,12474,-0.1428986,0.08972168,0.9856567,-0.1542511,0.07243347,0.9853668,-0.1338572,0.2280908,0.9643945,
638503279249021582,178330,12475,-0.1428833,0.08935547,0.9856873,-0.1543274,0.0682373,0.9856567,-0.1392224,0.2282038,0.9636079,
638503279249101579,178338,12475,-0.143631,0.08932495,0.9855804,-0.1544342,0.06739807,0.9856873,-0.1392224,0.2282038,0.9636079,
638503279249181578,178346,12476,-0.1430206,0.08776855,0.9858093,-0.1544647,0.06730652,0.9856873,-0.1445122,0.2284595,0.9627681,
638503279249261583,178354,12477,-0.1434174,0.08338928,0.9861298,-0.1544647,0.06936646,0.9855499,-0.1498948,0.2283866,0.9619621,
638503279249361579,178364,12478,-0.1434326,0.08364868,0.9861145,-0.1545868,0.06967163,0.9855042,-0.1552284,0.2285281,0.9610822,
638503279249431586,178371,12478,-0.1427002,0.08129883,0.9864197,-0.1546631,0.07029724,0.9854584,-0.1552284,0.2285281,0.9610822,
638503279249511587,178379,12479,-0.1426849,0.08145142,0.9864044,-0.1548309,0.06869507,0.9855347,-0.1607285,0.2287186,0.9601324,
638503279249601582,178388,12480,-0.1432953,0.08058167,0.9863892,-0.1539764,0.06915283,0.9856415,-0.1661995,0.2288562,0.9591677,
638503279249681586,178396,12481,-0.1410065,0.08026123,0.9867401,-0.155014,0.06719971,0.985611,-0.1719029,0.2289782,0.9581327,
638503279249761581,178404,12481,-0.1412048,0.07814026,0.9868774,-0.1550446,0.06585693,0.9857025,-0.1719029,0.2289782,0.9581327,
638503279249851576,178413,12482,-0.1412659,0.0737915,0.9872131,-0.1528015,0.06486511,0.9861145,-0.1774939,0.2294735,0.9569942,
638503279249931581,178421,12483,-0.1397858,0.07444763,0.9873657,-0.1529694,0.06375122,0.9861603,-0.1833732,0.2298587,0.9557925,
638503279250011580,178429,12484,-0.1404114,0.07421875,0.9873047,-0.151947,0.06417847,0.9862976,-0.1893294,0.2302185,0.9545438,
638503279250101584,178438,12484,-0.139679,0.07122803,0.9876251,-0.1507874,0.06355286,0.9865112,-0.1893294,0.2302185,0.9545438,
638503279250181599,178446,12485,-0.1399231,0.07115173,0.9875946,-0.1510468,0.06330872,0.986496,-0.1951483,0.2306901,0.9532571,
638503279250261600,178454,12486,-0.140152,0.07139587,0.9875488,-0.1517944,0.06207275,0.9864502,-0.2010774,0.2309337,0.9519651,
638503279250361578,178464,12487,-0.139801,0.06993103,0.9877014,-0.1539917,0.05958557,0.9862671,-0.2069301,0.2313467,0.9506096,
638503279250431598,178471,12487,-0.1370697,0.07128906,0.9879761,-0.1507416,0.05854797,0.9868317,-0.2069301,0.2313467,0.9506096,
638503279250511760,178479,12488,-0.1364288,0.07376099,0.9878845,-0.151062,0.05891418,0.9867554,-0.2128339,0.2316844,0.9492229,
638503279250601675,178488,12489,-0.1315155,0.07516479,0.9884491,-0.1523895,0.05923462,0.9865417,-0.2187285,0.2320964,0.9477811,
638503279250691670,178497,12490,-0.1322327,0.07514954,0.9883575,-0.1520081,0.0567627,0.9867401,-0.2247771,0.2325082,0.9462638,
638503279250771676,178505,12490,-0.1319733,0.07427979,0.9884491,-0.152298,0.05717468,0.9866638,-0.2247771,0.2325082,0.9462638,
638503279250851680,178513,12491,-0.1313477,0.07295227,0.9886322,-0.1531372,0.05603027,0.9866028,-0.2303705,0.2332327,0.9447391,
638503279250931677,178521,12492,-0.1285706,0.07261658,0.9890289,-0.1480255,0.05589294,0.9873962,-0.2360461,0.2336672,0.9432295,
638503279251011680,178529,12493,-0.1296997,0.06433105,0.9894562,-0.1485291,0.05430603,0.9874115,-0.2416815,0.2339389,0.9417338,
638503279251091675,178537,12493,-0.124649,0.0622406,0.9902344,-0.1470642,0.05337524,0.9876709,-0.2416815,0.2339389,0.9417338,
638503279251181675,178546,12494,-0.1244812,0.06262207,0.9902344,-0.144104,0.05244446,0.9881592,-0.2471042,0.2342327,0.9402524,
638503279251261692,178554,12495,-0.1177673,0.06402588,0.9909668,-0.1301117,0.04734802,0.9903564,-0.2522154,0.2343868,0.9388558,
638503279251351693,178563,12496,-0.1105957,0.06544495,0.9916992,-0.122406,0.05607605,0.9908905,-0.2572215,0.2344522,0.9374803,
638503279251431674,178571,12496,-0.1098938,0.06541443,0.9917755,-0.1342316,0.04167175,0.9900665,-0.2572215,0.2344522,0.9374803,
638503279251511678,178579,12497,-0.1121521,0.06356812,0.9916534,-0.1329193,0.04127502,0.9902496,-0.2622721,0.2344285,0.9360858,
638503279251591670,178587,12498,-0.1121368,0.05732727,0.9920349,-0.1355591,0.03358459,0.9901886,-0.2671827,0.234416,0.9346992,
638503279251681674,178596,12499,-0.1107483,0.05912781,0.9920807,-0.1351929,0.03694153,0.9901276,-0.2718223,0.2342277,0.9334077,
638503279251761687,178604,12499,-0.1059418,0.05911255,0.9925995,-0.1366425,0.04045105,0.9897919,-0.2718223,0.2342277,0.9334077,
638503279251841693,178612,12500,-0.1070557,0.05749512,0.9925842,-0.1360168,0.04164124,0.9898224,-0.2767092,0.2341539,0.9319893,
638503279251931669,178621,12501,-0.1016235,0.05410767,0.9933472,-0.1355133,0.04078674,0.9899292,-0.2813192,0.2340172,0.9306425,
638503279252011673,178629,12502,-0.1027985,0.05131531,0.9933624,-0.136322,0.03869629,0.9898987,-0.2859941,0.2338453,0.9292598,
638503279252091675,178637,12502,-0.1022949,0.05136108,0.9934235,-0.1362,0.03955078,0.9898834,-0.2859941,0.2338453,0.9292598,
638503279252181669,178646,12503,-0.1019592,0.0484314,0.9936066,-0.1352844,0.03915405,0.9900208,-0.2903364,0.2337095,0.9279465,
638503279252261672,178654,12504,-0.1019287,0.04612732,0.9937134,-0.1343842,0.03875732,0.9901581,-0.2948545,0.2332762,0.92663,
638503279252341675,178662,12505,-0.1024017,0.04563904,0.9936829,-0.1334534,0.03741455,0.9903412,-0.298871,0.2331513,0.9253738,
638503279252431674,178671,12505,-0.1026001,0.04927063,0.9934998,-0.1325378,0.03611755,0.990509,-0.298871,0.2331513,0.9253738,
638503279252511673,178679,12506,-0.1048889,0.05020142,0.9932098,-0.1320801,0.03726196,0.9905243,-0.3032137,0.2328163,0.9240444,
638503279252601669,178688,12507,-0.1055756,0.05204773,0.993042,-0.1316528,0.03594971,0.9906311,-0.3073638,0.2325768,0.9227327,
638503279252691680,178697,12508,-0.1074371,0.05198669,0.9928436,-0.1318665,0.03639221,0.9905853,-0.3114302,0.2320896,0.921491,
638503279252761693,178704,12508,-0.1069641,0.04981995,0.9930115,-0.1320953,0.03601074,0.9905701,-0.3114302,0.2320896,0.921491,
638503279252841687,178712,12509,-0.1070099,0.04966736,0.9930115,-0.1293793,0.03625488,0.990921,-0.3153303,0.2319612,0.9201961,
638503279252941686,178722,12510,-0.1072845,0.04870605,0.9930267,-0.1291351,0.03642273,0.9909515,-0.3192833,0.2317017,0.9188974,
638503279253011673,178729,12511,-0.1061707,0.04745483,0.9932098,-0.1288605,0.03201294,0.9911346,-0.3232424,0.2311802,0.9176438,
638503279253091678,178737,12511,-0.1049957,0.04681396,0.9933624,-0.1286621,0.0322876,0.9911499,-0.3232424,0.2311802,0.9176438,
638503279253181679,178746,12512,-0.105011,0.04676819,0.9933624,-0.1282806,0.03137207,0.9912262,-0.3277029,0.230845,0.9161448,
638503279253261686,178754,12513,-0.1046906,0.04742432,0.9933624,-0.1268158,0.03140259,0.9914246,-0.3314169,0.2302918,0.9149473,
638503279253341676,178762,12514,-0.105423,0.0447998,0.9934082,-0.1257782,0.03138733,0.9915466,-0.3348452,0.2300087,0.9137695,
638503279253431672,178771,12514,-0.1051178,0.04519653,0.9934235,-0.1257172,0.03184509,0.9915466,-0.3348452,0.2300087,0.9137695,
638503279253511682,178779,12515,-0.1058502,0.04362488,0.9934082,-0.1256866,0.0308075,0.9915771,-0.3386575,0.2294531,0.9125034,
638503279253601669,178788,12516,-0.105957,0.04359436,0.9934082,-0.1220551,0.02986145,0.9920654,-0.3428104,0.2287627,0.9111249,
638503279253691672,178797,12517,-0.1061554,0.04316711,0.9934082,-0.1220551,0.0305481,0.9920502,-0.3464963,0.2282362,0.9098618,
638503279253761678,178804,12517,-0.1066437,0.04251099,0.9933777,-0.1216431,0.02949524,0.9921265,-0.3464963,0.2282362,0.9098618,
638503279253841685,178812,12518,-0.1066895,0.04219055,0.9933929,-0.12146,0.0296936,0.9921417,-0.3504701,0.2276034,0.9084973,
638503279253941676,178822,12519,-0.1072083,0.04249573,0.9933167,-0.1208801,0.02934265,0.992218,-0.3542667,0.2270615,0.9071594,
638503279254021685,178830,12520,-0.1073608,0.04220581,0.9933167,-0.1208496,0.02946472,0.992218,-0.3581543,0.2263972,0.9057979,
638503279254091681,178837,12520,-0.1061096,0.04220581,0.993454,-0.1204987,0.02958679,0.9922638,-0.3581543,0.2263972,0.9057979,
638503279254181679,178846,12521,-0.1062317,0.04225159,0.9934387,-0.1200409,0.0292511,0.9923248,-0.3617807,0.2258949,0.9044812,
638503279254261677,178854,12522,-0.1061096,0.04208374,0.993454,-0.1202087,0.02890015,0.9923248,-0.365374,0.2253915,0.9031614,
638503279254341672,178862,12523,-0.1048889,0.04121399,0.9936218,-0.1203156,0.02830505,0.9923248,-0.3692887,0.2247301,0.9017329,
638503279254431669,178871,12523,-0.1027679,0.04122925,0.9938354,-0.1200562,0.02836609,0.9923553,-0.3692887,0.2247301,0.9017329,
638503279254511691,178879,12524,-0.1027069,0.04089355,0.993866,-0.1190796,0.02853394,0.9924622,-0.3731021,0.2239221,0.9003631,
638503279254591672,178887,12525,-0.1033173,0.04098511,0.9937897,-0.1191254,0.02877808,0.9924469,-0.3768972,0.2234611,0.8988958,
638503279254691672,178897,12526,-0.1019745,0.04116821,0.993927,-0.1194763,0.02645874,0.9924774,-0.3808231,0.2226257,0.8974472,
638503279254761674,178904,12526,-0.1017761,0.04052734,0.9939728,-0.1225128,0.01664734,0.9923248,-0.3808231,0.2226257,0.8974472,
638503279254841676,178912,12527,-0.1225433,0.0216217,0.992218,-0.1435547,0.01473999,0.9895172,-0.3847394,0.221268,0.8961116,
638503279254931668,178921,12528,-0.1557617,0.006866455,0.9877625,-0.1707458,-0.01042175,0.9852448,-0.3886754,0.2200474,0.8947126,
638503279255021686,178930,12529,-0.1589966,0.01190186,0.9871979,-0.1741791,-0.0004119873,0.9847107,-0.3924336,0.218781,0.8933817,
638503279255091673,178937,12529,-0.1642151,0.01039124,0.9863586,-0.1736755,0.004821777,0.984787,-0.3924336,0.218781,0.8933817,
638503279255181686,178946,12530,-0.1580353,0.01069641,0.9873657,-0.1693573,0.004241943,0.9855347,-0.3960364,0.2181667,0.8919408,
638503279255261681,178954,12531,-0.1568604,0.01063538,0.9875488,-0.1708832,0.002807617,0.9852753,-0.3999849,0.2171372,0.8904288,
638503279255351676,178963,12532,-0.1555176,0.01048279,0.9877625,-0.1705322,0.001724243,0.9853363,-0.4035103,0.2159366,0.8891292,
638503279255431678,178971,12532,-0.1541748,0.00894165,0.9879913,-0.1710358,0.0008392334,0.98526,-0.4035103,0.2159366,0.8891292,
638503279255510540,178979,12533,-0.1554108,0.007797241,0.9878082,-0.1710358,0.00201416,0.98526,-0.4073021,0.2151788,0.8875827,
638503279255590441,178987,12534,-0.1550751,0.007492065,0.9878693,-0.1705475,0.002410889,0.9853363,-0.4107245,0.2143449,0.8862063,
