time(100ns),time_stamp(ms),frame,gaze_direct_L.x,gaze_direct_L.y,gaze_direct_L.z,gaze_direct_R.x,gaze_direct_R.y,gaze_direct_R.z,forward.x,forward.y,forward.z,
638549094533391711,346140,24871,0.205658,0.128952,0.9700775,0.23526,0.1625061,0.9582367,-0.2432616,0.1413224,0.9596102,
638549094533466812,346148,24873,0.2133331,0.1319885,0.9680176,0.2338409,0.178894,0.955658,-0.2414442,0.1458849,0.9593864,
638549094533546812,346156,24873,0.214447,0.1281281,0.9682922,0.2328033,0.1801758,0.9556732,-0.2414442,0.1458849,0.9593864,
638549094533626818,346164,24874,0.2199554,0.1192932,0.9681854,0.2481689,0.175293,0.952713,-0.2405255,0.1486545,0.959192,
638549094533716814,346173,24875,0.2218781,0.1148071,0.968277,0.2448273,0.1937714,0.9499969,-0.2394102,0.1514103,0.95904,
638549094533786818,346180,24875,0.2192688,0.1154175,0.9687958,0.227829,0.1741638,0.9579926,-0.2394102,0.1514103,0.95904,
638549094533876815,346189,24876,0.2031708,0.1122894,0.9726715,0.2209167,0.1854553,0.957489,-0.2379997,0.1542503,0.9589385,
638549094533956813,346197,24877,0.2035828,0.1142426,0.9723663,0.2358551,0.1646881,0.9577179,-0.236441,0.1569851,0.9588802,
638549094534046816,346206,24878,0.2068329,0.1173096,0.9713135,0.2152557,0.1652222,0.9624634,-0.2346461,0.1593112,0.9589375,
638549094534126812,346214,24879,0.2158356,0.11586,0.9695282,0.2234802,0.1633148,0.9609222,-0.2328077,0.1616257,0.9589983,
638549094534216813,346223,24879,0.2042847,0.1100311,0.972702,0.2312927,0.1549835,0.9604492,-0.2328077,0.1616257,0.9589983,
638549094534296820,346231,24880,0.21698,0.1107178,0.9698639,0.219162,0.168045,0.9610901,-0.2307692,0.163759,0.9591291,
638549094534386835,346240,24881,0.2036743,0.1140594,0.9723663,0.2414093,0.1592102,0.9572601,-0.2285751,0.1658702,0.9592917,
638549094534461889,346247,24882,0.197937,0.1069489,0.97435,0.2362976,0.1599731,0.9584045,-0.2262355,0.1675772,0.9595496,
638549094534551896,346256,24882,0.1976318,0.1023407,0.9749146,0.2399902,0.1580811,0.9578094,-0.2262355,0.1675772,0.9595496,
638549094534631892,346264,24883,0.1984253,0.1052399,0.9744415,0.2443085,0.1553802,0.9571533,-0.2240243,0.1693599,0.9597554,
638549094534721894,346273,24884,0.1989288,0.1057129,0.9742889,0.2403717,0.1554413,0.9581451,-0.2215665,0.1704834,0.9601269,
638549094534801898,346281,24885,0.1987,0.1035461,0.9745636,0.242157,0.155899,0.9576263,-0.2190353,0.1710748,0.9606024,
638549094534891902,346290,24885,0.1986542,0.1029205,0.9746399,0.2362366,0.1580658,0.9587402,-0.2190353,0.1710748,0.9606024,
638549094534957011,346297,24886,0.1987,0.1025543,0.9746704,0.2265778,0.1596527,0.9608154,-0.2167532,0.1713131,0.9610775,
638549094535047002,346306,24887,0.1949768,0.1040192,0.9752655,0.2219391,0.1547241,0.9626923,-0.2147246,0.1707401,0.9616346,
638549094535127018,346314,24888,0.1961517,0.1046753,0.9749603,0.2336884,0.1469727,0.9611359,-0.212671,0.1699443,0.9622318,
638549094535207000,346322,24888,0.1898193,0.1042633,0.9762573,0.2134399,0.138443,0.9670868,-0.212671,0.1699443,0.9622318,
638549094535296998,346331,24889,0.1965027,0.09832764,0.9755554,0.2056732,0.1403198,0.9685059,-0.2109599,0.1683282,0.9628923,
638549094535387016,346340,24890,0.1958923,0.09811401,0.9756927,0.2141113,0.1507263,0.9651031,-0.2093038,0.1664293,0.9635835,
638549094535462099,346347,24891,0.1847839,0.09320068,0.9783325,0.2081299,0.1555176,0.9656525,-0.2086135,0.1635386,0.964228,
638549094535542468,346355,24891,0.1850281,0.1068573,0.9768982,0.2138824,0.1628876,0.9631805,-0.2086135,0.1635386,0.964228,
638549094535622303,346364,24892,0.1861877,0.1062469,0.9767456,0.2056274,0.1595612,0.9655304,-0.2074008,0.1611528,0.964891,
638549094535722302,346373,24893,0.1910248,0.1032562,0.9761353,0.1956177,0.1608124,0.967392,-0.2068361,0.1579666,0.9655389,
638549094535782317,346379,24893,0.1806946,0.1018982,0.978241,0.2142334,0.1704559,0.961792,-0.2068361,0.1579666,0.9655389,
638549094535882302,346389,24894,0.181366,0.1128693,0.9769135,0.2131958,0.162796,0.9633331,-0.2059803,0.1550038,0.9662018,
638549094535957400,346397,24895,0.1805267,0.1113129,0.9772339,0.2175293,0.1639862,0.9621735,-0.2058702,0.1520865,0.9666888,
638549094536047390,346406,24896,0.1802673,0.1105499,0.9773712,0.2172089,0.1618958,0.9626007,-0.2056146,0.1490419,0.9672172,
638549094536117382,346413,24896,0.1732941,0.1039734,0.9793549,0.2138672,0.1664429,0.9625702,-0.2056146,0.1490419,0.9672172,
638549094536207393,346422,24897,0.189209,0.1128235,0.9754181,0.2192688,0.1654358,0.9615326,-0.2059084,0.1463897,0.9675597,
638549094536307379,346432,24898,0.1781464,0.1228485,0.9763031,0.2220459,0.1704254,0.9600067,-0.205883,0.1440323,0.9679188,
638549094536387383,346440,24899,0.1780548,0.1154633,0.9772186,0.2211761,0.1737213,0.9596252,-0.2060777,0.1420098,0.9681762,
638549094536462474,346448,24900,0.1768646,0.1212006,0.9767303,0.2202148,0.1724854,0.9600677,-0.2063719,0.1401997,0.9683774,
638549094536542602,346456,24900,0.174118,0.1220398,0.9771271,0.2314606,0.1740417,0.9571381,-0.2063719,0.1401997,0.9683774,
638549094536632641,346465,24901,0.1772461,0.1149902,0.977417,0.2156982,0.175766,0.960495,-0.2064531,0.1387903,0.968563,
638549094536722677,346474,24902,0.1726379,0.1095581,0.9788666,0.218811,0.1744995,0.960022,-0.2065381,0.1378424,0.9686803,
638549094536782635,346480,24902,0.1779327,0.1277618,0.975708,0.2082825,0.1732483,0.9625854,-0.2065381,0.1378424,0.9686803,
638549094536882636,346490,24903,0.1720734,0.125351,0.977066,0.2027588,0.1769714,0.963089,-0.2063047,0.1369448,0.9688573,
638549094536967717,346498,24904,0.1755981,0.1194611,0.9771729,0.1900482,0.1600494,0.9686279,-0.2060186,0.1362341,0.9690183,
638549094537047721,346506,24905,0.1707001,0.1083527,0.9793396,0.199295,0.1764984,0.9638977,-0.2054769,0.1355747,0.9692258,
638549094537117718,346513,24905,0.1742401,0.1258087,0.9766235,0.2105408,0.1745453,0.9618683,-0.2054769,0.1355747,0.9692258,
638549094537217720,346523,24906,0.1714478,0.1229858,0.977478,0.203949,0.1647186,0.9650116,-0.2046519,0.1355871,0.9693987,
638549094537307721,346532,24907,0.1724854,0.1210632,0.9775391,0.1996765,0.163269,0.966156,-0.2038493,0.1355457,0.9695735,
638549094537377720,346539,24908,0.1838226,0.1194763,0.9756622,0.1909332,0.1604156,0.968399,-0.2030433,0.1357269,0.9697173,
638549094537457724,346547,24908,0.1703644,0.116272,0.9784851,0.2035065,0.1563568,0.9664917,-0.2030433,0.1357269,0.9697173,
638549094537547721,346556,24909,0.1641083,0.09921265,0.9814301,0.1911316,0.1590576,0.9685822,-0.2021107,0.1361665,0.9698505,
638549094537627718,346564,24910,0.1732941,0.1188812,0.9776611,0.2076263,0.1504974,0.9665527,-0.2011528,0.1365565,0.9699948,
638549094537707727,346572,24911,0.1738281,0.1152496,0.9779968,0.2068787,0.1555481,0.9659119,-0.2001075,0.1370311,0.970144,
638549094537797729,346581,24911,0.1776276,0.112381,0.9776459,0.21492,0.1516876,0.9647675,-0.2001075,0.1370311,0.970144,
638549094537877726,346589,24912,0.1668549,0.1070099,0.9801483,0.2028656,0.1534576,0.9671021,-0.198922,0.1373713,0.9703397,
638549094537957727,346597,24913,0.162262,0.09211731,0.9824219,0.162796,0.1428833,0.9762421,-0.1974913,0.1377147,0.9705833,
638549094538047734,346606,24914,0.1592102,0.05888367,0.9854736,0.1403351,0.09358215,0.9856567,-0.1960601,0.1382412,0.9707986,
638549094538117724,346613,24914,0.1507874,0.04664612,0.9874573,0.1448059,0.0793457,0.9862671,-0.1960601,0.1382412,0.9707986,
638549094538207720,346622,24915,0.150177,0.04386902,0.9876709,0.1581116,0.04580688,0.9863434,-0.1946212,0.1386866,0.9710245,
638549094538297730,346631,24916,0.1477509,0.01882935,0.9888306,0.1556854,0.04423523,0.9868011,-0.193202,0.1390861,0.9712508,
638549094538387719,346640,24917,0.1489105,0.02886963,0.9884186,0.1399994,0.04833984,0.9889679,-0.1918686,0.1394545,0.9714622,
638549094538457723,346647,24917,0.1426086,0.02593994,0.9894257,0.1368561,0.0382843,0.9898376,-0.1918686,0.1394545,0.9714622,
638549094538547721,346656,24918,0.1468964,0.02307129,0.9888763,0.132431,0.03929138,0.9904022,-0.1905133,0.1394474,0.97173,
638549094538627741,346664,24919,0.139328,0.02703857,0.9898682,0.1386566,0.03840637,0.9895935,-0.1889496,0.1395831,0.9720157,
638549094538717733,346673,24919,0.1434631,0.02296448,0.9893799,0.133316,0.0345459,0.9904633,-0.1889496,0.1395831,0.9720157,
638549094538797721,346681,24920,0.1064911,-0.00920105,0.9942627,0.1320801,0.03759766,0.9905243,-0.1873969,0.1395535,0.9723206,
638549094538887719,346690,24921,0.1060181,-0.008392334,0.9943237,0.1293335,0.0337677,0.9910126,-0.1858782,0.139197,0.9726631,
638549094538967720,346698,24922,0.1344757,0.01290894,0.9908295,0.1186218,0.03837585,0.9921875,-0.1846017,0.1390014,0.9729341,
638549094539047722,346706,24922,0.1341248,0.0199585,0.9907532,0.1288147,0.03053284,0.9911957,-0.1846017,0.1390014,0.9729341,
638549094539117720,346713,24923,0.1367645,0.01928711,0.9904022,0.1277618,0.01882935,0.9916229,-0.1831845,0.1382226,0.9733129,
638549094539207727,346722,24924,0.09431458,-0.004714966,0.9955292,0.1254272,0.02171326,0.9918518,-0.1817313,0.1375927,0.9736745,
638549094539307741,346732,24925,0.110321,0.004165649,0.9938812,0.1295624,0.0158844,0.9914398,-0.1804219,0.137038,0.9739962,
638549094539377729,346739,24925,0.1265411,0.01370239,0.9918518,0.1092224,0.01049805,0.9939575,-0.1804219,0.137038,0.9739962,
638549094539467725,346748,24926,0.1300507,0.01318359,0.9914093,0.1096039,0.02314758,0.9936981,-0.1789257,0.135891,0.9744328,
638549094539557717,346757,24927,0.1308289,0.01638794,0.9912567,0.1105194,0.005981445,0.9938507,-0.1776686,0.1350054,0.9747859,
638549094539627729,346764,24928,0.10112,-0.00239563,0.9948578,0.1114655,0.01245117,0.9936829,-0.1765606,0.1333933,0.975209,
638549094539717717,346773,24928,0.1016541,-0.002075195,0.994812,0.1098328,0.01045227,0.9938812,-0.1765606,0.1333933,0.975209,
638549094539797724,346781,24929,0.0947876,-0.007003784,0.9954681,0.09817505,0.003067017,0.995163,-0.1751028,0.1318068,0.9756874,
638549094539877726,346789,24930,0.09191895,-0.01161194,0.995697,0.1057129,0.006973267,0.9943695,-0.1739476,0.1297539,0.9761691,
638549094539967721,346798,24931,0.08576965,-0.01382446,0.9962158,0.09240723,0.01014709,0.9956665,-0.1726906,0.1275853,0.976678,
638549094540047725,346806,24931,0.126358,-0.001556396,0.9919739,0.09262085,0.01010132,0.995636,-0.1726906,0.1275853,0.976678,
638549094540117721,346813,24932,0.1222687,-0.001403809,0.9924927,0.09144592,-0.001312256,0.9958038,-0.171162,0.1252228,0.9772527,
638549094540217734,346823,24933,0.1194916,-0.003433228,0.9928284,0.09411621,-0.0003509521,0.9955597,-0.1696907,0.1224932,0.977855,
638549094540307728,346832,24934,0.1160736,-0.003921509,0.9932251,0.09043884,0.0005645752,0.9958954,-0.1681885,0.1197518,0.9784539,
638549094540377719,346839,24934,0.1096649,-0.0227356,0.9936981,0.09753418,0.005218506,0.9952087,-0.1681885,0.1197518,0.9784539,
638549094540457726,346847,24935,0.07923889,-0.05555725,0.9953003,0.08094788,-0.03590393,0.9960632,-0.1663209,0.1166832,0.9791437,
638549094540547731,346856,24936,0.07104492,-0.08732605,0.9936371,0.087677,-0.06881714,0.9937592,-0.1644682,0.1134828,0.9798326,
638549094540627743,346864,24937,0.0617218,-0.107605,0.9922638,0.08618164,-0.09468079,0.9917603,-0.1624903,0.1103851,0.9805162,
638549094540707726,346872,24937,0.0559082,-0.1235199,0.9907532,0.08230591,-0.1022644,0.991333,-0.1624903,0.1103851,0.9805162,
638549094540797721,346881,24938,0.0549469,-0.1245422,0.9906769,0.0796814,-0.1157532,0.9900665,-0.1606453,0.1070318,0.9811918,
638549094540887727,346890,24939,0.04722595,-0.1252899,0.9909821,0.08410645,-0.1102142,0.9903412,-0.1587416,0.1031519,0.9819169,
638549094540967725,346898,24940,0.04943848,-0.133194,0.9898529,0.09054565,-0.1047363,0.9903564,-0.1568841,0.0995471,0.9825873,
638549094541047722,346906,24940,0.03872681,-0.1287384,0.990921,0.07453918,-0.1057587,0.9915924,-0.1568841,0.0995471,0.9825873,
638549094541127724,346914,24941,0.04148865,-0.1275787,0.9909515,0.0796051,-0.09442139,0.9923401,-0.155417,0.09562931,0.9832093,
638549094541217734,346923,24942,0.04391479,-0.1313629,0.9903564,0.06480408,-0.1021881,0.9926453,-0.1536797,0.09206546,0.9838224,
638549094541297735,346931,24943,0.07556152,-0.1163635,0.9903259,0.07537842,-0.1060181,0.9914856,-0.1523249,0.08847552,0.9843624,
638549094541387722,346940,24943,0.07945251,-0.1128998,0.9904175,0.08659363,-0.1061554,0.9905701,-0.1523249,0.08847552,0.9843624,
638549094541467717,346948,24944,0.07627869,-0.1125793,0.9907074,0.0687561,-0.1003723,0.992569,-0.1507054,0.08518257,0.9849019,
638549094541547733,346956,24945,0.08485413,-0.1079865,0.990509,0.06983948,-0.101059,0.9924164,-0.1491235,0.08207464,0.9854065,
638549094541634344,346965,24946,0.07603455,-0.12323,0.9894562,0.07099915,-0.1047516,0.9919586,-0.1473646,0.07925788,0.9859015,
638549094541717733,346973,24946,0.07450867,-0.1080627,0.991333,0.06155396,-0.1026917,0.9927979,-0.1473646,0.07925788,0.9859015,
638549094541797727,346981,24947,0.07778931,-0.1094208,0.9909363,0.06968689,-0.1092529,0.9915619,-0.145894,0.07678708,0.9863157,
638549094541887729,346990,24948,0.0770874,-0.1032867,0.9916534,0.05778503,-0.1047363,0.9928131,-0.144519,0.07428581,0.9867096,
638549094541966656,346998,24949,0.07881165,-0.1097107,0.9908295,0.05407715,-0.1163483,0.9917297,-0.1434339,0.07211924,0.9870287,
638549094542037733,347005,24949,0.0736084,-0.1089325,0.9913177,0.05297852,-0.1105499,0.9924469,-0.1434339,0.07211924,0.9870287,
638549094542127723,347014,24950,0.07034302,-0.1077118,0.991684,0.04737854,-0.1099243,0.9927979,-0.1421568,0.07017977,0.9873531,
638549094542207729,347022,24951,0.07325745,-0.1078644,0.9914551,0.04299927,-0.1014252,0.9939117,-0.1412897,0.06840314,0.9876022,
638549094542287733,347030,24952,0.07200623,-0.1108551,0.9912109,0.03842163,-0.1020355,0.9940338,-0.1403839,0.06674084,0.9878451,
638549094542387722,347040,24952,0.06982422,-0.1188354,0.990448,0.02871704,-0.1051483,0.9940338,-0.1403839,0.06674084,0.9878451,
638549094542457722,347047,24953,0.06738281,-0.118988,0.9906006,0.03231812,-0.110611,0.9933319,-0.1396974,0.06525435,0.9880418,
638549094542547726,347056,24954,0.06738281,-0.1196442,0.9905243,0.03370667,-0.1101074,0.9933319,-0.1389457,0.06391679,0.9882352,
638549094542627722,347064,24955,0.06936646,-0.1235809,0.9898987,0.02630615,-0.1124725,0.9933014,-0.138684,0.06263232,0.9883541,
638549094542707729,347072,24955,0.05699158,-0.1139984,0.9918365,0.04759216,-0.09429932,0.9944,-0.138684,0.06263232,0.9883541,
638549094542797724,347081,24956,0.06382751,-0.1267242,0.9898682,0.04547119,-0.09867859,0.9940643,-0.1383705,0.06144945,0.9884723,
638549094542887728,347090,24957,0.05529785,-0.116806,0.9916077,0.04347229,-0.1008301,0.9939423,-0.1381403,0.06039552,0.9885695,
638549094542966216,347098,24958,0.05163574,-0.1194153,0.9914856,0.0451355,-0.1021271,0.9937439,-0.1379571,0.05942583,0.9886538,
638549094543047727,347106,24958,0.04829407,-0.1179504,0.9918365,0.04504395,-0.1027679,0.9936829,-0.1379571,0.05942583,0.9886538,
638549094543127721,347114,24959,0.04896545,-0.1200409,0.9915466,0.04626465,-0.1018829,0.9937134,-0.1378348,0.05856751,0.9887221,
638549094543217722,347123,24960,0.04962158,-0.1221161,0.991272,0.04125977,-0.1081543,0.9932709,-0.137775,0.05776586,0.9887776,
638549094543287725,347130,24961,0.04924011,-0.1238251,0.9910736,0.04310608,-0.1035919,0.9936829,-0.1378934,0.05699148,0.9888061,
638549094543377722,347139,24961,0.0488739,-0.1255646,0.9908752,0.04762268,-0.1131897,0.9924164,-0.1378934,0.05699148,0.9888061,
638549094543457725,347147,24962,0.05960083,-0.1278381,0.9899902,0.04286194,-0.1096649,0.993042,-0.1379897,0.05624682,0.9888352,
638549094543547719,347156,24963,0.05670166,-0.1251831,0.990509,0.04315186,-0.1268463,0.9909821,-0.1380424,0.05558503,0.9888653,
638549094543627736,347164,24964,0.05613708,-0.1251526,0.9905396,0.04611206,-0.1295929,0.9904785,-0.138304,0.0547565,0.988875,
638549094543717734,347173,24964,0.05693054,-0.124939,0.9905243,0.04194641,-0.1300812,0.9906006,-0.138304,0.0547565,0.988875,
638549094543797731,347181,24965,0.02354431,-0.1480865,0.988678,0.05369568,-0.133316,0.9896088,-0.13845,0.05387282,0.9889031,
638549094543877735,347189,24966,0.04818726,-0.1304626,0.9902802,0.04653931,-0.135376,0.9896851,-0.1388636,0.05298877,0.9888929,
638549094543966917,347198,24967,0.02894592,-0.1331329,0.9906616,0.0557251,-0.1455688,0.9877625,-0.1391824,0.05225825,0.9888869,
638549094544037737,347205,24967,0.02142334,-0.1436005,0.9893951,0.04420471,-0.1484985,0.987915,-0.1391824,0.05225825,0.9888869,
638549094544117737,347213,24968,0.02812195,-0.1427307,0.9893494,0.05792236,-0.1595764,0.9854736,-0.1394465,0.05115874,0.9889072,
638549094544217726,347223,24969,0.02140808,-0.154007,0.9878235,0.05804443,-0.1511993,0.9867859,-0.1397717,0.05047151,0.9888966,
638549094544297729,347231,24970,0.02619934,-0.1517944,0.9880524,0.05625916,-0.1624146,0.9851074,-0.1401018,0.04943235,0.9889024,
638549094544387733,347240,24970,0.02958679,-0.1479034,0.9885559,0.05508423,-0.1595612,0.9856415,-0.1401018,0.04943235,0.9889024,
638549094544457737,347247,24971,0.02738953,-0.154541,0.9875946,0.05187988,-0.1555939,0.9864502,-0.1402248,0.04851771,0.9889302,
638549094544547737,347256,24972,0.02810669,-0.1471405,0.9887085,0.05036926,-0.1565247,0.9863739,-0.1406212,0.04748317,0.9889242,
638549094544633176,347265,24973,0.02638245,-0.1545105,0.9876251,0.05335999,-0.1657257,0.9847107,-0.1405649,0.0465049,0.9889787,
638549094544717746,347273,24973,0.04034424,-0.1642151,0.9855957,0.05473328,-0.1643219,0.9848785,-0.1405649,0.0465049,0.9889787,
638549094544787747,347280,24974,0.02508545,-0.1583557,0.9870605,0.05073547,-0.1646729,0.9850311,-0.1408975,0.04545901,0.9889799,
638549094544877735,347289,24975,0.02226257,-0.1546783,0.9877014,0.04785156,-0.1644897,0.9852142,-0.1410594,0.04439713,0.9890051,
638549094544966915,347298,24976,0.02458191,-0.1553955,0.9875336,0.04548645,-0.1657257,0.9851074,-0.1412459,0.04347049,0.9890197,
638549094545037732,347305,24976,0.0262146,-0.1587677,0.9869537,0.04441833,-0.1691437,0.9845886,-0.1412459,0.04347049,0.9890197,
638549094545127726,347314,24977,0.03355408,-0.1618958,0.9862213,0.04342651,-0.1725159,0.9840393,-0.1411039,0.0426465,0.9890758,
638549094545217725,347323,24978,0.03338623,-0.1558685,0.9871979,0.04319763,-0.1724548,0.9840546,-0.1412424,0.04194525,0.989086,
638549094545287727,347330,24979,0.02941895,-0.1594543,0.9867554,0.04298401,-0.1723785,0.9840851,-0.1410035,0.04103217,0.9891584,
638549094545377726,347339,24979,0.03292847,-0.1574402,0.986969,0.03965759,-0.1820831,0.9824677,-0.1410035,0.04103217,0.9891584,
638549094545457718,347347,24980,0.03599548,-0.1549835,0.9872589,0.0383606,-0.1826935,0.9824066,-0.140859,0.04013867,0.9892157,
638549094545547726,347356,24981,0.03370667,-0.1586761,0.9867401,0.03578186,-0.1855011,0.9819794,-0.1406253,0.03907816,0.9892914,
638549094545627726,347364,24982,0.03157043,-0.1624298,0.9862061,0.03596497,-0.1831055,0.9824219,-0.1405768,0.03825708,0.9893304,
638549094545707721,347372,24982,0.03269958,-0.1633301,0.9860229,0.02867126,-0.1760254,0.983963,-0.1405768,0.03825708,0.9893304,
638549094545797720,347381,24983,0.03372192,-0.1670685,0.9853668,0.03015137,-0.1718597,0.9846497,-0.1401508,0.03747256,0.9894208,
638549094545877735,347389,24984,0.02735901,-0.1679382,0.9854126,0.03289795,-0.1818695,0.9827576,-0.1402327,0.03674394,0.9894366,
638549094545964771,347398,24985,0.03649902,-0.1929169,0.9805298,0.03874207,-0.2065125,0.9776611,-0.1400931,0.03604139,0.9894822,
638549094546037729,347405,24985,0.03596497,-0.2184753,0.975174,0.03533936,-0.2434235,0.9692688,-0.1400931,0.03604139,0.9894822,
638549094546127723,347414,24986,0.04270935,-0.2383881,0.9702148,0.03746033,-0.2420349,0.9695282,-0.1400976,0.03534101,0.9895068,
638549094546207735,347422,24987,0.04075623,-0.2535095,0.9664612,0.02807617,-0.2571564,0.9659576,-0.1400721,0.03470869,0.9895328,
638549094546297736,347431,24988,0.03157043,-0.2554016,0.9663086,0.03346252,-0.2675934,0.9629364,-0.1400241,0.03399713,0.9895642,
638549094546377727,347439,24988,0.03334045,-0.2550354,0.9663544,0.02479553,-0.2649231,0.9639435,-0.1400241,0.03399713,0.9895642,
