time(100ns),time_stamp(ms),frame,gaze_direct_L.x,gaze_direct_L.y,gaze_direct_L.z,gaze_direct_R.x,gaze_direct_R.y,gaze_direct_R.z,forward.x,forward.y,forward.z,
638115315441479442,89315,3789,-0.01013184,-0.1155396,0.9932404,0.006210327,-0.08189392,0.9966125,0.07234623,0.3498735,0.9339992,
638115315441559174,89323,3790,-0.01014709,-0.1168671,0.9930878,0.00617981,-0.08392334,0.9964447,0.07235789,0.3498252,0.9340164,
638115315441642328,89331,3791,-0.01014709,-0.1168671,0.9930878,0.00617981,-0.08406067,0.9964294,0.07264937,0.3500891,0.9338949,
638115315441732120,89340,3791,-0.01013184,-0.1167755,0.993103,0.00617981,-0.08403015,0.9964294,0.07264937,0.3500891,0.9338949,
638115315441811758,89348,3792,-0.01010132,-0.1164398,0.9931335,0.006057739,-0.08340454,0.9964905,0.07266004,0.3499922,0.9339304,
638115315441891498,89356,3793,-0.009857178,-0.1162872,0.9931641,0.005477905,-0.08348083,0.9964905,0.07254875,0.3498825,0.9339802,
638115315441981189,89365,3794,-0.009063721,-0.1182404,0.9929352,0.004989624,-0.08364868,0.9964752,0.07287692,0.3499967,0.9339119,
638115315442060928,89373,3794,-0.00869751,-0.1181335,0.9929504,0.004547119,-0.08357239,0.9964752,0.07287692,0.3499967,0.9339119,
638115315442140663,89381,3795,-0.01126099,-0.1179352,0.9929504,0.005233765,-0.08377075,0.99646,0.07293034,0.3499481,0.9339259,
638115315442230370,89390,3796,-0.01118469,-0.1159821,0.9931793,0.005020142,-0.08366394,0.9964752,0.07323594,0.3498012,0.933957,
638115315442310096,89398,3797,-0.01094055,-0.1176453,0.992981,0.005233765,-0.08413696,0.9964294,0.07335532,0.3497443,0.9339689,
638115315442389829,89406,3797,-0.01133728,-0.1157532,0.9932098,0.005722046,-0.08486938,0.9963684,0.07335532,0.3497443,0.9339689,
638115315442479524,89415,3798,-0.01130676,-0.1159668,0.9931793,0.005462646,-0.08442688,0.9963989,0.07362622,0.3497696,0.9339381,
638115315442559259,89423,3799,-0.01185608,-0.1159363,0.9931793,0.005645752,-0.08374023,0.99646,0.0737723,0.3494617,0.9340419,
638115315442641624,89431,3800,-0.01184082,-0.1159363,0.9931793,0.005706787,-0.08361816,0.9964752,0.0740413,0.3493516,0.9340617,
638115315442731322,89440,3800,-0.01173401,-0.1159668,0.9931793,0.005187988,-0.08354187,0.9964752,0.0740413,0.3493516,0.9340617,
638115315442811054,89448,3801,-0.01164246,-0.1160736,0.9931641,0.004821777,-0.08346558,0.9964905,0.07410486,0.3492144,0.934108,
638115315442890795,89456,3802,-0.01141357,-0.1156769,0.9932098,0.004974365,-0.08375549,0.99646,0.07424594,0.3489815,0.9341838,
638115315442980484,89465,3803,-0.01119995,-0.115448,0.9932404,0.004425049,-0.08418274,0.9964294,0.07442844,0.3487688,0.9342487,
638115315443060269,89473,3803,-0.01119995,-0.1147614,0.9933167,0.003952026,-0.08381653,0.99646,0.07442844,0.3487688,0.9342487,
638115315443140002,89481,3804,-0.01039124,-0.1130219,0.9935303,0.004394531,-0.08392334,0.99646,0.0745419,0.3485134,0.934335,
638115315443229702,89490,3805,-0.01046753,-0.1131287,0.993515,0.004608154,-0.08427429,0.9964294,0.07490677,0.3482528,0.934403,
638115315443309441,89498,3806,-0.01019287,-0.1134949,0.9934845,0.0052948,-0.08447266,0.9963989,0.07508685,0.3479596,0.9344978,
638115315443389170,89506,3806,-0.007904053,-0.1131592,0.9935303,0.005493164,-0.08447266,0.9963989,0.07508685,0.3479596,0.9344978,
638115315443478871,89514,3807,0.01200867,-0.09361267,0.9955292,0.01638794,-0.08294678,0.9964142,0.07523509,0.3475306,0.9346455,
638115315443558602,89522,3808,0.04019165,-0.06559753,0.9970245,0.04507446,-0.05072021,0.9976807,0.0753921,0.3471316,0.9347811,
638115315443642079,89531,3809,0.06352234,-0.04272461,0.9970551,0.08695984,-0.02728271,0.9958344,0.07561669,0.3466754,0.9349322,
638115315443721808,89539,3809,0.07646179,-0.02020264,0.9968567,0.0941925,-0.01130676,0.9954834,0.07561669,0.3466754,0.9349322,
638115315443811514,89548,3810,0.07397461,-0.02301025,0.9969788,0.08872986,-0.02427673,0.9957581,0.0755319,0.3462298,0.9351042,
638115315443891254,89556,3811,0.0743103,-0.02519226,0.9969025,0.08122253,-0.01687622,0.9965515,0.0754734,0.3458578,0.9352466,
638115315443970985,89564,3812,0.07472229,-0.02998352,0.9967499,0.08586121,-0.01713562,0.9961548,0.07526839,0.3454647,0.9354084,
638115315444060685,89573,3812,0.07553101,-0.02844238,0.9967346,0.08848572,-0.01655579,0.9959259,0.07526839,0.3454647,0.9354084,
638115315444140415,89581,3813,0.07627869,-0.02711487,0.9967041,0.08700562,-0.01760864,0.996048,0.07516925,0.3453735,0.93545,
638115315444230114,89590,3814,0.0776825,-0.02552795,0.9966431,0.08843994,-0.01716614,0.9959259,0.07497048,0.3450635,0.9355804,
638115315444309853,89598,3815,0.07696533,-0.02424622,0.9967346,0.09014893,-0.01782227,0.9957581,0.07492778,0.3450975,0.9355713,
638115315444389581,89606,3815,0.07766724,-0.02432251,0.9966736,0.09181213,-0.0186615,0.9955902,0.07492778,0.3450975,0.9355713,
638115315444479283,89615,3816,0.07774353,-0.02467346,0.9966583,0.09109497,-0.01797485,0.9956665,0.07505953,0.3449832,0.9356028,
638115315444559016,89622,3817,0.07766724,-0.02502441,0.9966583,0.09165955,-0.01879883,0.9956055,0.07515208,0.3448514,0.935644,
638115315444638750,89630,3818,0.07759094,-0.02534485,0.9966583,0.09069824,-0.01879883,0.995697,0.07528915,0.3447057,0.9356866,
638115315444728447,89639,3818,0.07850647,-0.02497864,0.9965973,0.09103394,-0.01873779,0.9956665,0.07528915,0.3447057,0.9356866,
638115315444808182,89647,3819,0.07951355,-0.0247345,0.996521,0.09085083,-0.01873779,0.9956818,0.07529621,0.3444534,0.935779,
638115315444887922,89655,3820,0.0793457,-0.02476501,0.9965363,0.09068298,-0.01869202,0.995697,0.07553148,0.3442566,0.9358325,
638115315444987579,89665,3821,0.07928467,-0.0249176,0.9965363,0.0907135,-0.01844788,0.995697,0.07544578,0.3438002,0.9360071,
638115315445062408,89673,3821,0.07975769,-0.0249176,0.9964905,0.09059143,-0.01824951,0.9957123,0.07544578,0.3438002,0.9360071,
638115315445142147,89681,3822,0.07940674,-0.02471924,0.996521,0.09075928,-0.01838684,0.995697,0.07528359,0.3433469,0.9361866,
638115315445231843,89690,3823,0.08045959,-0.02418518,0.99646,0.0907135,-0.01864624,0.995697,0.07537847,0.3428223,0.9363711,
638115315445311579,89698,3824,0.08024597,-0.02301025,0.9965057,0.09391785,-0.01954651,0.9953766,0.07525507,0.3426786,0.9364337,
638115315445391309,89706,3824,0.09031677,-0.0173645,0.9957581,0.08705139,-0.0002441406,0.9962006,0.07525507,0.3426786,0.9364337,
638115315445471045,89714,3825,0.09611511,-0.009796143,0.9953156,0.09971619,-0.002929688,0.9950104,0.07542607,0.342553,0.9364659,
638115315445560742,89723,3826,0.09895325,-0.01008606,0.9950256,0.1044769,-0.01017761,0.9944611,0.07538778,0.342309,0.9365582,
638115315445640482,89731,3827,0.09524536,-0.006820679,0.9954224,0.108078,-0.006652832,0.9941101,0.07568327,0.3419747,0.9366565,
638115315445720208,89739,3827,0.09591675,-0.008346558,0.9953461,0.1066437,-0.005722046,0.994278,0.07568327,0.3419747,0.9366565,
638115315445809908,89748,3828,0.09620667,-0.009552002,0.9953003,0.1099854,-0.005004883,0.9939117,0.07597783,0.3414869,0.9368106,
638115315445889649,89756,3829,0.09553528,-0.01116943,0.9953613,0.1080475,-0.005432129,0.9941254,0.07635911,0.3410997,0.9369206,
638115315445979346,89765,3830,0.09541321,-0.00970459,0.9953766,0.1061096,-0.00440979,0.994339,0.07648821,0.3407993,0.9370194,
638115315446064136,89773,3830,0.09580994,-0.009246826,0.9953461,0.1070099,-0.006149292,0.9942322,0.07648821,0.3407993,0.9370194,
638115315446143873,89781,3831,0.09541321,-0.009155273,0.9953918,0.1065826,-0.005340576,0.994278,0.07664722,0.3404993,0.9371155,
638115315446233567,89790,3832,0.0957489,-0.009140015,0.9953613,0.1066132,-0.005126953,0.994278,0.07680124,0.3399861,0.9372892,
638115315446303340,89797,3833,0.09541321,-0.009155273,0.9953918,0.1065674,-0.005996704,0.994278,0.07668442,0.3397155,0.9373969,
638115315446393034,89806,3833,0.09538269,-0.00932312,0.9953918,0.1049194,-0.005752563,0.9944611,0.07668442,0.3397155,0.9373969,
638115315446472767,89814,3834,0.09533691,-0.009170532,0.9953918,0.1032715,-0.005828857,0.9946289,0.07676192,0.3394793,0.9374761,
638115315446562467,89823,3835,0.09516907,-0.009872437,0.9954071,0.1028137,-0.003829956,0.9946899,0.07646038,0.3391671,0.9376137,
638115315446642204,89831,3836,0.09501648,-0.01089478,0.9954071,0.1023407,-0.001754761,0.9947357,0.07615727,0.3394608,0.9375321,
638115315446721934,89839,3836,0.09494019,-0.01119995,0.9954071,0.1018372,-0.000793457,0.9947968,0.07615727,0.3394608,0.9375321,
638115315446811634,89848,3837,0.09487915,-0.01152039,0.9954071,0.1013489,0.0001220703,0.9948425,0.07597345,0.3394245,0.9375601,
638115315446891373,89856,3838,0.0932312,-0.006713867,0.9956207,0.08757019,0.01773071,0.9959869,0.07560398,0.339721,0.9374827,
638115315446971105,89864,3839,0.04270935,-0.027771,0.9986877,0.01341248,-0.0151825,0.9997864,0.07486367,0.3397236,0.9375411,
638115315447060801,89873,3839,-0.02598572,-0.05444336,0.9981689,-0.05599976,-0.05909729,0.9966736,0.07486367,0.3397236,0.9375411,
638115315447140539,89881,3840,-0.1092377,-0.08268738,0.9905548,-0.134613,-0.08235168,0.9874573,0.07389089,0.3391196,0.9378369,
638115315447220270,89889,3841,-0.1735535,-0.1015015,0.9795685,-0.1918335,-0.1138458,0.9747925,0.07145931,0.3381059,0.9383911,
638115315447309972,89898,3842,-0.2381439,-0.1297302,0.9625092,-0.2496338,-0.1154938,0.9614105,0.06776868,0.3370759,0.9390353,
638115315447389701,89906,3842,-0.3022614,-0.1324768,0.9439697,-0.2952271,-0.1335907,0.9460297,0.06776868,0.3370759,0.9390353,
638115315447469438,89914,3843,-0.3530426,-0.1429901,0.9246063,-0.3498535,-0.1592712,0.9231567,0.06245755,0.335536,0.9399546,
638115315447559135,89923,3844,-0.4001007,-0.1458435,0.9047852,-0.3981323,-0.1449432,0.9057922,0.05584392,0.33419,0.9408499,
638115315447638872,89930,3845,-0.4347992,-0.1603851,0.8861237,-0.4221497,-0.1562347,0.8929443,0.04967629,0.3324004,0.9418292,
638115315447718601,89938,3845,-0.4211731,-0.1515656,0.8942108,-0.4315186,-0.1569366,0.8883362,0.04967629,0.3324004,0.9418292,
638115315447808301,89947,3846,-0.4289703,-0.1585388,0.8892822,-0.4221954,-0.152298,0.8936157,0.04217137,0.3303476,0.9429168,
638115315447898000,89956,3847,-0.4351349,-0.1634674,0.8853912,-0.4117737,-0.1533661,0.8982697,0.03464284,0.3279097,0.9440737,
638115315447967771,89963,3847,-0.4256134,-0.152298,0.891983,-0.419281,-0.146698,0.8959045,0.03464284,0.3279097,0.9440737,
638115315448057468,89972,3848,-0.4238281,-0.1606293,0.8913727,-0.4091492,-0.1455078,0.9007721,0.02658518,0.3250274,0.9453309,
638115315448137203,89980,3849,-0.4250946,-0.1617279,0.890564,-0.3986359,-0.1437225,0.9057617,0.01899821,0.3226267,0.9463356,
638115315448226901,89989,3850,-0.4133148,-0.1571503,0.8969116,-0.3974762,-0.1397552,0.9068909,0.01172121,0.3211124,0.9469686,
638115315448306635,89997,3851,-0.4186401,-0.1524048,0.8952637,-0.3970032,-0.1461792,0.9060822,0.005047637,0.3201672,0.9473476,
638115315448386368,90005,3851,-0.4031982,-0.1516571,0.9024506,-0.3927307,-0.1520081,0.9069977,0.005047637,0.3201672,0.9473476,
638115315448476067,90014,3852,-0.3977051,-0.1442261,0.9060974,-0.4009857,-0.149292,0.9038239,-0.0009448007,0.3193518,0.9476358,
638115315448565767,90023,3853,-0.4044342,-0.1472321,0.9026184,-0.3901978,-0.1559296,0.9074097,-0.006119927,0.3189674,0.9477459,
638115315448635539,90030,3854,-0.4022369,-0.1543274,0.90242,-0.3774567,-0.1462097,0.9143982,-0.01106646,0.3183801,0.9478986,
638115315448725234,90039,3854,-0.4022064,-0.1432495,0.9042511,-0.371048,-0.1607513,0.9145813,-0.01106646,0.3183801,0.9478986,
638115315448804968,90047,3855,-0.333252,-0.1332092,0.9333649,-0.3347931,-0.1126709,0.9355164,-0.01464527,0.3182891,0.9478806,
638115315448894672,90056,3856,-0.2250671,-0.09281921,0.9698944,-0.2572479,-0.08229065,0.9628296,-0.01737962,0.318393,0.9477995,
638115315448974399,90064,3857,-0.1365814,-0.05102539,0.9893036,-0.1704865,-0.07046509,0.9828339,-0.01742604,0.3188311,0.9476513,
638115315449054134,90072,3857,-0.04959106,-0.02906799,0.9983368,-0.08377075,-0.04948425,0.9952545,-0.01742604,0.3188311,0.9476513,
638115315449143838,90081,3858,0.04519653,-0.009689331,0.9989166,0.01922607,-0.01921082,0.9996185,-0.01546902,0.3196287,0.9474166,
638115315449233534,90090,3859,0.1101837,0.009231567,0.993866,0.1000214,0.008071899,0.9949493,-0.01096304,0.3205305,0.9471747,
638115315449313269,90098,3860,0.1590729,0.01121521,0.9871979,0.1729126,0.007705688,0.9848938,-0.003945013,0.3212101,0.9469997,
638115315449393004,90106,3860,0.1883392,0.0236969,0.9818115,0.2087555,0.01489258,0.9778442,-0.003945013,0.3212101,0.9469997,
638115315449472734,90114,3861,0.1791992,0.01586914,0.9836731,0.1965485,0.01025391,0.9804382,0.002585273,0.3215534,0.9468879,
638115315449552473,90122,3862,0.1810913,0.01390076,0.9833527,0.2044678,0.02316284,0.9785919,0.0109798,0.3219249,0.9467015,
638115315449642168,90131,3863,0.1789703,0.01525879,0.9837341,0.2036591,0.02038574,0.9788208,0.01815662,0.3224521,0.9464117,
638115315449721902,90139,3863,0.1645508,0.01272583,0.9862823,0.1999969,0.02644348,0.9794312,0.01815662,0.3224521,0.9464117,
638115315449811604,90148,3864,0.1618195,0.008529663,0.9867706,0.193573,0.02949524,0.9806366,0.0253916,0.3230331,0.946047,
638115315449891341,90156,3865,0.1639862,0.007766724,0.9864197,0.1944122,0.03361511,0.9803314,0.03220225,0.3236979,0.9456124,
638115315449971071,90164,3866,0.1566162,0.01130676,0.9875793,0.1945801,0.03224182,0.9803467,0.03873652,0.3243407,0.9451469,
638115315450060768,90173,3866,0.1528931,0.002716064,0.9882355,0.1889801,0.02549744,0.9816437,0.03873652,0.3243407,0.9451469,
638115315450140506,90181,3867,0.1524811,0.008132935,0.988266,0.184433,0.02709961,0.9824677,0.04555196,0.3246046,0.9447523,
638115315450220235,90189,3868,0.1452026,0.004425049,0.9893799,0.1892242,0.02471924,0.9816132,0.05219219,0.3246959,0.9443774,
638115315450309941,90198,3869,0.1406403,0.009399414,0.9900055,0.1859589,0.02793884,0.9821472,0.05878934,0.3248098,0.9439504,
638115315450389669,90206,3869,0.1309967,0.004928589,0.9913635,0.1771545,0.01495361,0.9840546,0.05878934,0.3248098,0.9439504,
638115315450469402,90214,3870,0.1306305,-0.001342773,0.9914246,0.1733704,0.01889038,0.9846649,0.06512681,0.3245512,0.9436234,
638115315450559101,90223,3871,0.1228027,0.003128052,0.9924164,0.1657257,0.006362915,0.986145,0.07064731,0.3245091,0.9432406,
638115315450638835,90230,3872,0.1339569,0.005325317,0.9909668,0.1634521,0.003692627,0.9865417,0.07539861,0.3243575,0.9429249,
638115315450728535,90239,3872,0.1268463,0.003067017,0.9919128,0.1629181,0.004730225,0.986618,0.07539861,0.3243575,0.9429249,
638115315450808269,90247,3873,0.129776,0.007843018,0.9915009,0.1573486,0.006393433,0.9875183,0.07958031,0.3245347,0.9425201,
638115315450888004,90255,3874,0.1242981,0.01350403,0.9921417,0.1491699,0.00340271,0.9888,0.08286767,0.3242877,0.9423218,
638115315450967740,90263,3875,0.116745,0.01152039,0.9930878,0.1445313,-0.0002288818,0.9894867,0.08588789,0.3241623,0.9420945,
638115315451057434,90272,3875,0.1091919,0.01335144,0.993927,0.1365051,0.002212524,0.9906311,0.08588789,0.3241623,0.9420945,
638115315451147141,90281,3876,0.1138,0.01690674,0.9933472,0.1364441,0.006286621,0.9906158,0.08819327,0.3241514,0.9418852,
638115315451226868,90289,3877,0.1135864,0.004272461,0.993515,0.1357269,0.006515503,0.9907227,0.09031601,0.3241677,0.9416785,
638115315451306599,90297,3878,0.1079712,0.01338196,0.9940491,0.1350861,0.005050659,0.9908142,0.09156351,0.3238969,0.9416512,
638115315451396305,90306,3878,0.1093903,0.01634216,0.9938507,0.128067,0.01327515,0.9916687,0.09156351,0.3238969,0.9416512,
638115315451476041,90314,3879,0.1041412,0.01019287,0.9945068,0.1248322,0.004364014,0.992157,0.09244888,0.3238364,0.9415855,
638115315451565734,90323,3880,0.102356,0.01167297,0.9946747,0.1181946,0.01486206,0.9928741,0.09324202,0.323824,0.9415115,
638115315451635495,90330,3881,0.1017151,0.01071167,0.994751,0.1184235,0.01455688,0.9928436,0.09359734,0.3237011,0.9415185,
638115315451725202,90339,3881,0.1015625,0.008529663,0.9947815,0.1186371,0.01420593,0.9928284,0.09359734,0.3237011,0.9415185,
638115315451804935,90347,3882,0.1017151,0.01091003,0.994751,0.1170349,0.01417542,0.9930115,0.09370098,0.3235288,0.9415674,
638115315451894642,90356,3883,0.1013184,0.009643555,0.9947968,0.1152802,0.01370239,0.9932251,0.09367064,0.3233685,0.9416255,
638115315451974368,90364,3884,0.1012421,0.01066589,0.9947968,0.1151123,0.01449585,0.9932404,0.09361679,0.3229809,0.9417639,
638115315452054102,90372,3884,0.1009979,0.009368896,0.9948273,0.1149445,0.0148468,0.9932556,0.09361679,0.3229809,0.9417639,
638115315452143802,90381,3885,0.1004944,0.008041382,0.9949036,0.1147766,0.01451111,0.9932709,0.09302032,0.3225148,0.9419827,
638115315452223534,90389,3886,0.100235,0.007629395,0.9949188,0.1146088,0.01428223,0.9933014,0.09242099,0.3219841,0.9422232,
638115315452303270,90397,3887,0.1003113,0.008804321,0.9949036,0.1141663,0.01451111,0.9933472,0.09170293,0.3216134,0.9424199,
638115315452392967,90406,3887,0.1001587,0.009902954,0.9949188,0.1137085,0.01469421,0.9933929,0.09170293,0.3216134,0.9424199,
638115315452472702,90414,3888,0.09999084,0.01100159,0.9949188,0.1134186,0.01515198,0.9934235,0.0908708,0.3213342,0.9425958,
638115315452552436,90422,3889,0.1001282,0.003448486,0.9949646,0.1134644,0.01577759,0.9934082,0.09024579,0.3211485,0.9427191,
638115315452642136,90431,3890,0.1000061,0.009796143,0.9949341,0.1136169,0.01565552,0.9933929,0.08950183,0.3209338,0.9428632,
638115315452721867,90439,3890,0.09785461,0.01077271,0.9951324,0.1137543,0.01557922,0.9933777,0.08950183,0.3209338,0.9428632,
638115315452811569,90448,3891,0.09538269,0.007034302,0.9954071,0.1134338,0.01626587,0.9934082,0.08896812,0.3210151,0.942886,
638115315452891309,90456,3892,0.09768677,0.008621216,0.9951782,0.1136627,0.0171814,0.9933624,0.08843316,0.3211133,0.9429029,
638115315452971031,90464,3893,0.09999084,0.009628296,0.9949341,0.1129303,0.01850891,0.9934235,0.08806281,0.3214942,0.9428077,
638115315453060734,90473,3893,0.09899902,0.009414673,0.9950409,0.111908,0.01792908,0.9935455,0.08806281,0.3214942,0.9428077,
638115315453140468,90481,3894,0.09909058,0.008514404,0.9950256,0.1116791,0.01821899,0.9935608,0.08763021,0.3219146,0.9427046,
638115315453220202,90489,3895,0.100174,0.008560181,0.9949188,0.1128693,0.02098083,0.9933777,0.08764783,0.322239,0.9425921,
638115315453309903,90498,3896,0.1012421,0.008682251,0.994812,0.1118317,0.02096558,0.9934998,0.08768051,0.3226863,0.942436,
638115315453389635,90506,3896,0.1010437,0.008773804,0.9948425,0.1140137,0.02101135,0.9932556,0.08768051,0.3226863,0.942436,
638115315453469368,90514,3897,0.1009216,0.008758545,0.9948425,0.1137238,0.02101135,0.9932861,0.08798694,0.3228668,0.9423456,
638115315453559067,90523,3898,0.1006317,0.008331299,0.994873,0.1133423,0.02098083,0.9933319,0.08848149,0.3230786,0.9422268,
638115315453638803,90530,3899,0.1003418,0.007888794,0.9949188,0.1136627,0.02098083,0.9932861,0.08903152,0.3232613,0.9421123,
638115315453728502,90539,3899,0.09967041,0.008148193,0.9949799,0.1137085,0.01879883,0.9933319,0.08903152,0.3232613,0.9421123,
638115315453808235,90547,3900,0.09899902,0.008361816,0.9950409,0.1130066,0.01872253,0.9934082,0.08976759,0.3235333,0.941949,
638115315453887968,90555,3901,0.09889221,0.008758545,0.9950562,0.1115112,0.01687622,0.9936066,0.09058638,0.3238151,0.9417738,
638115315453977669,90564,3902,0.09877014,0.009109497,0.9950562,0.1103363,0.01641846,0.9937439,0.09136292,0.3238377,0.941691,
638115315454057400,90572,3902,0.09924316,0.008666992,0.9950104,0.1099701,0.01701355,0.9937744,0.09136292,0.3238377,0.941691,
638115315454147104,90581,3903,0.09924316,0.008758545,0.9950104,0.109848,0.01660156,0.9938049,0.09239595,0.3236829,0.9416434,
638115315454226835,90589,3904,0.09919739,0.007446289,0.9950256,0.1098175,0.0161438,0.9938049,0.09378753,0.323471,0.9415787,
638115315454316536,90598,3905,0.09902954,0.006408691,0.9950562,0.1106873,0.01548767,0.9937286,0.09537599,0.323255,0.9414933,
638115315454386303,90605,3905,0.09902954,0.00630188,0.9950562,0.1108093,0.01229858,0.9937592,0.09537599,0.323255,0.9414933,
638115315454476000,90614,3906,0.09901428,0.006393433,0.9950562,0.1107941,0.01022339,0.9937897,0.09722215,0.32275,0.9414777,
